#	Freq	Err	Trans
    5.49900E+02    2.90158E+02    9.68514E-100
    5.50000E+02    2.97861E+02    4.36921E-100
    5.50100E+02    3.05901E+02    1.40953E-100
    5.50200E+02    3.14291E+02    3.20142E-100
    5.50300E+02    3.23047E+02    5.04154E-100
    5.50400E+02    3.32193E+02    5.37602E-100
    5.50500E+02    3.41748E+02    3.80709E-100
    5.50600E+02    3.51729E+02    1.76151E-100
    5.50700E+02    3.62165E+02    5.17104E-100
    5.50800E+02    3.73090E+02    9.31508E-100
    5.50900E+02    3.84555E+02    9.76827E-100
    5.51000E+02    3.96784E+02    4.77368E-100
    5.51100E+02    4.08978E+02    2.41520E-100
    5.51200E+02    4.22010E+02    5.29103E-100
    5.51300E+02    4.35760E+02    5.64705E-100
    5.51400E+02    4.50165E+02    3.13182E-100
    5.51500E+02    4.65214E+02    9.12100E-100
    5.51600E+02    4.81024E+02    1.24117E-100
    5.51700E+02    4.97614E+02    7.74629E-100
    5.51800E+02    5.15082E+02    2.00814E-100
    5.51900E+02    5.33422E+02    2.17724E-100
    5.52000E+02    5.52707E+02    9.17104E-100
    5.52100E+02    5.73008E+02    1.39917E-100
    5.52200E+02    5.94370E+02    7.38914E-100
    5.52300E+02    6.16879E+02    1.23804E-100
    5.52400E+02    6.40660E+02    5.82197E-100
    5.52500E+02    6.65755E+02    7.35329E-100
    5.52600E+02    6.92286E+02    2.20716E-100
    5.52700E+02    7.20338E+02    1.44980E-100
    5.52800E+02    7.50070E+02    0.00000E+00
    5.52900E+02    7.81560E+02    0.00000E+00
    5.53000E+02    8.14975E+02    0.00000E+00
    5.53100E+02    8.50434E+02    0.00000E+00
    5.53200E+02    8.88096E+02    0.00000E+00
    5.53300E+02    9.28164E+02    0.00000E+00
    5.53400E+02    9.70795E+02    0.00000E+00
    5.53500E+02    1.01619E+03    0.00000E+00
    5.53600E+02    1.06459E+03    0.00000E+00
    5.53700E+02    1.11615E+03    0.00000E+00
    5.53800E+02    1.17124E+03    0.00000E+00
    5.53900E+02    1.23009E+03    0.00000E+00
    5.54000E+02    1.29299E+03    0.00000E+00
    5.54100E+02    1.36029E+03    0.00000E+00
    5.54200E+02    1.43227E+03    0.00000E+00
    5.54300E+02    1.50942E+03    0.00000E+00
    5.54400E+02    1.59205E+03    0.00000E+00
    5.54500E+02    1.68060E+03    0.00000E+00
    5.54600E+02    1.77552E+03    0.00000E+00
    5.54700E+02    1.87731E+03    0.00000E+00
    5.54800E+02    1.98643E+03    0.00000E+00
    5.54900E+02    2.10340E+03    0.00000E+00
    5.55000E+02    2.22868E+03    0.00000E+00
    5.55100E+02    2.36277E+03    0.00000E+00
    5.55200E+02    2.50613E+03    0.00000E+00
    5.55300E+02    2.65918E+03    0.00000E+00
    5.55400E+02    2.82223E+03    0.00000E+00
    5.55500E+02    2.99548E+03    0.00000E+00
    5.55600E+02    3.17894E+03    0.00000E+00
    5.55700E+02    3.37239E+03    0.00000E+00
    5.55800E+02    3.57533E+03    0.00000E+00
    5.55900E+02    3.78687E+03    0.00000E+00
    5.56000E+02    4.00552E+03    0.00000E+00
    5.56100E+02    4.22950E+03    0.00000E+00
    5.56200E+02    4.45589E+03    0.00000E+00
    5.56300E+02    4.68067E+03    0.00000E+00
    5.56400E+02    4.89985E+03    0.00000E+00
    5.56500E+02    5.10743E+03    0.00000E+00
    5.56600E+02    5.29622E+03    0.00000E+00
    5.56700E+02    5.45704E+03    0.00000E+00
    5.56800E+02    5.58019E+03    0.00000E+00
    5.56900E+02    5.65097E+03    0.00000E+00
    5.57000E+02    5.64016E+03    0.00000E+00
    5.57100E+02    5.55694E+03    0.00000E+00
    5.57200E+02    5.42573E+03    0.00000E+00
    5.57300E+02    5.25972E+03    0.00000E+00
    5.57400E+02    5.06811E+03    0.00000E+00
    5.57500E+02    4.85930E+03    0.00000E+00
    5.57600E+02    4.64049E+03    0.00000E+00
    5.57700E+02    4.41688E+03    0.00000E+00
    5.57800E+02    4.19247E+03    0.00000E+00
    5.57900E+02    3.97132E+03    0.00000E+00
    5.58000E+02    3.75557E+03    0.00000E+00
    5.58100E+02    3.54717E+03    0.00000E+00
    5.58200E+02    3.34747E+03    0.00000E+00
    5.58300E+02    3.15726E+03    0.00000E+00
    5.58400E+02    2.97698E+03    0.00000E+00
    5.58500E+02    2.80673E+03    0.00000E+00
    5.58600E+02    2.64656E+03    0.00000E+00
    5.58700E+02    2.49619E+03    0.00000E+00
    5.58800E+02    2.35527E+03    0.00000E+00
    5.58900E+02    2.22346E+03    0.00000E+00
    5.59000E+02    2.10025E+03    0.00000E+00
    5.59100E+02    1.98521E+03    0.00000E+00
    5.59200E+02    1.87780E+03    0.00000E+00
    5.59300E+02    1.77756E+03    0.00000E+00
    5.59400E+02    1.68400E+03    0.00000E+00
    5.59500E+02    1.59668E+03    0.00000E+00
    5.59600E+02    1.51515E+03    0.00000E+00
    5.59700E+02    1.43904E+03    0.00000E+00
    5.59800E+02    1.36797E+03    0.00000E+00
    5.59900E+02    1.30139E+03    0.00000E+00
    5.60000E+02    1.23910E+03    0.00000E+00
    5.60100E+02    1.18080E+03    0.00000E+00
    5.60200E+02    1.12620E+03    0.00000E+00
    5.60300E+02    1.07499E+03    0.00000E+00
    5.60400E+02    1.02694E+03    0.00000E+00
    5.60500E+02    9.81818E+02    0.00000E+00
    5.60600E+02    9.39413E+02    0.00000E+00
    5.60700E+02    8.99528E+02    0.00000E+00
    5.60800E+02    8.62004E+02    0.00000E+00
    5.60900E+02    8.26640E+02    0.00000E+00
    5.61000E+02    7.93276E+02    0.00000E+00
    5.61100E+02    7.61793E+02    0.00000E+00
    5.61200E+02    7.32069E+02    1.16546E-100
    5.61300E+02    7.03986E+02    1.83222E-100
    5.61400E+02    6.77382E+02    6.55604E-100
    5.61500E+02    6.52219E+02    5.55593E-100
    5.61600E+02    6.28376E+02    1.25823E-100
    5.61700E+02    6.05773E+02    8.24067E-100
    5.61800E+02    5.84330E+02    1.69291E-100
    5.61900E+02    5.63967E+02    1.18045E-100
    5.62000E+02    5.44604E+02    3.02928E-100
    5.62100E+02    5.26202E+02    2.97481E-100
    5.62200E+02    5.08679E+02    1.21202E-100
    5.62300E+02    4.91997E+02    2.13123E-100
    5.62400E+02    4.76114E+02    1.68374E-100
    5.62500E+02    4.60952E+02    6.47447E-100
    5.62600E+02    4.46510E+02    1.21157E-100
    5.62700E+02    4.32708E+02    1.19472E-100
    5.62800E+02    4.19507E+02    6.46263E-100
    5.62900E+02    4.06903E+02    1.92345E-100
    5.63000E+02    3.94870E+02    3.23818E-100
    5.63100E+02    3.83336E+02    3.30557E-100
    5.63200E+02    3.72290E+02    2.07241E-100
    5.63300E+02    3.61714E+02    8.12444E-100
    5.63400E+02    3.51579E+02    2.04762E-100
    5.63500E+02    3.41851E+02    3.43513E-100
    5.63600E+02    3.32512E+02    3.90767E-100
    5.63700E+02    3.23549E+02    3.05033E-100
    5.63800E+02    3.14943E+02    1.66681E-100
    5.63900E+02    3.06669E+02    6.53346E-100
    5.64000E+02    2.98720E+02    1.85166E-100
    5.64100E+02    2.91071E+02    3.88746E-100
    5.64200E+02    2.83709E+02    6.11821E-100
    5.64300E+02    2.76620E+02    7.33349E-100
    5.64400E+02    2.69796E+02    6.74973E-100
    5.64500E+02    2.63218E+02    4.85194E-100
    5.64600E+02    2.56877E+02    2.75282E-100
    5.64700E+02    2.50760E+02    1.24821E-100
    5.64800E+02    2.44859E+02    4.55948E-100
    5.64900E+02    2.39167E+02    1.35241E-100
    5.65000E+02    2.33667E+02    3.31050E-100
    5.65100E+02    2.28358E+02    6.68604E-100
    5.65200E+02    2.23227E+02    1.13203E-97
    5.65300E+02    2.18268E+02    1.61291E-95
    5.65400E+02    2.13473E+02    1.94837E-93
    5.65500E+02    2.08837E+02    2.01061E-91
    5.65600E+02    2.04354E+02    1.77827E-89
    5.65700E+02    2.00086E+02    1.27031E-87
    5.65800E+02    1.95807E+02    9.16886E-86
    5.65900E+02    1.91729E+02    5.41093E-84
    5.66000E+02    1.87791E+02    2.77482E-82
    5.66100E+02    1.83992E+02    1.23950E-80
    5.66200E+02    1.80375E+02    4.61459E-79
    5.66300E+02    1.77435E+02    8.73059E-78
    5.66400E+02    1.73271E+02    5.61789E-76
    5.66500E+02    1.69816E+02    1.77832E-74
    5.66600E+02    1.66524E+02    4.78104E-73
    5.66700E+02    1.63441E+02    1.04299E-71
    5.66800E+02    1.60280E+02    2.46269E-70
    5.66900E+02    1.57243E+02    5.13043E-69
    5.67000E+02    1.54254E+02    1.01894E-67
    5.67100E+02    1.51386E+02    1.79408E-66
    5.67200E+02    1.48606E+02    2.89245E-65
    5.67300E+02    1.45905E+02    4.30577E-64
    5.67400E+02    1.43283E+02    5.92776E-63
    5.67500E+02    1.40730E+02    7.61355E-62
    5.67600E+02    1.38247E+02    9.12458E-61
    5.67700E+02    1.35832E+02    1.02072E-59
    5.67800E+02    1.33485E+02    1.06742E-58
    5.67900E+02    1.31187E+02    1.06193E-57
    5.68000E+02    1.28956E+02    9.89165E-57
    5.68100E+02    1.26781E+02    8.70044E-56
    5.68200E+02    1.24664E+02    7.23283E-55
    5.68300E+02    1.22598E+02    5.70644E-54
    5.68400E+02    1.20585E+02    4.27338E-53
    5.68500E+02    1.18623E+02    3.03752E-52
    5.68600E+02    1.16706E+02    2.06581E-51
    5.68700E+02    1.14841E+02    1.33352E-50
    5.68800E+02    1.13017E+02    8.26684E-50
    5.68900E+02    1.11240E+02    4.88638E-49
    5.69000E+02    1.09504E+02    2.77389E-48
    5.69100E+02    1.07812E+02    1.50658E-47
    5.69200E+02    1.06155E+02    7.89407E-47
    5.69300E+02    1.04540E+02    3.96977E-46
    5.69400E+02    1.02964E+02    1.91965E-45
    5.69500E+02    1.01420E+02    8.98923E-45
    5.69600E+02    9.99143E+01    4.05301E-44
    5.69700E+02    9.84445E+01    1.76236E-43
    5.69800E+02    9.70104E+01    7.39500E-43
    5.69900E+02    9.56160E+01    2.98189E-42
    5.70000E+02    9.42834E+01    1.13042E-41
    5.70100E+02    9.32847E+01    3.06895E-41
    5.70200E+02    9.16168E+01    1.62672E-40
    5.70300E+02    9.02893E+01    6.13567E-40
    5.70400E+02    8.90181E+01    2.18743E-39
    5.70500E+02    8.77836E+01    7.51703E-39
    5.70600E+02    8.65781E+01    2.50972E-38
    5.70700E+02    8.54025E+01    8.13141E-38
    5.70800E+02    8.42703E+01    2.52279E-37
    5.70900E+02    8.32183E+01    7.22340E-37
    5.71000E+02    8.28813E+01    1.01182E-36
    5.71100E+02    8.10183E+01    6.51936E-36
    5.71200E+02    7.98700E+01    2.05541E-35
    5.71300E+02    7.88004E+01    5.98999E-35
    5.71400E+02    7.77686E+01    1.68079E-34
    5.71500E+02    7.67582E+01    4.61689E-34
    5.71600E+02    7.57742E+01    1.23505E-33
    5.71700E+02    7.48075E+01    3.24709E-33
    5.71800E+02    7.38617E+01    8.36119E-33
    5.71900E+02    7.29324E+01    2.11771E-32
    5.72000E+02    7.20235E+01    5.25546E-32
    5.72100E+02    7.11348E+01    1.27805E-31
    5.72200E+02    7.02585E+01    3.07001E-31
    5.72300E+02    6.94025E+01    7.22589E-31
    5.72400E+02    6.85630E+01    1.67290E-30
    5.72500E+02    6.77405E+01    3.80799E-30
    5.72600E+02    6.69318E+01    8.54834E-30
    5.72700E+02    6.61481E+01    1.87182E-29
    5.72800E+02    6.53943E+01    3.97749E-29
    5.72900E+02    6.47127E+01    7.86396E-29
    5.73000E+02    6.38585E+01    1.84764E-28
    5.73100E+02    6.31037E+01    3.93018E-28
    5.73200E+02    6.23751E+01    8.14393E-28
    5.73300E+02    6.16629E+01    1.66017E-27
    5.73400E+02    6.09670E+01    3.32943E-27
    5.73500E+02    6.02961E+01    6.51251E-27
    5.73600E+02    5.98000E+01    1.06954E-26
    5.73700E+02    5.89569E+01    2.48505E-26
    5.73800E+02    5.82851E+01    4.86543E-26
    5.73900E+02    5.76389E+01    9.28414E-26
    5.74000E+02    5.70084E+01    1.74414E-25
    5.74100E+02    5.63873E+01    3.24571E-25
    5.74200E+02    5.57791E+01    5.96266E-25
    5.74300E+02    5.51804E+01    1.08504E-24
    5.74400E+02    5.45973E+01    1.94398E-24
    5.74500E+02    5.40441E+01    3.38020E-24
    5.74600E+02    5.34653E+01    6.03022E-24
    5.74700E+02    5.28867E+01    1.07546E-23
    5.74800E+02    5.23301E+01    1.87643E-23
    5.74900E+02    5.17881E+01    3.22629E-23
    5.75000E+02    5.12552E+01    5.49747E-23
    5.75100E+02    5.07306E+01    9.28918E-23
    5.75200E+02    5.02142E+01    1.55684E-22
    5.75300E+02    4.97060E+01    2.58793E-22
    5.75400E+02    4.92060E+01    4.26694E-22
    5.75500E+02    4.87140E+01    6.97862E-22
    5.75600E+02    4.82302E+01    1.13209E-21
    5.75700E+02    4.77547E+01    1.82135E-21
    5.75800E+02    4.72870E+01    2.90746E-21
    5.75900E+02    4.68238E+01    4.62029E-21
    5.76000E+02    4.63691E+01    7.28007E-21
    5.76100E+02    4.59234E+01    1.13690E-20
    5.76200E+02    4.54876E+01    1.75786E-20
    5.76300E+02    4.50647E+01    2.68306E-20
    5.76400E+02    4.46634E+01    4.00790E-20
    5.76500E+02    4.44207E+01    5.10910E-20
    5.76600E+02    4.38466E+01    9.07133E-20
    5.76700E+02    4.33937E+01    1.42672E-19
    5.76800E+02    4.29832E+01    2.15106E-19
    5.76900E+02    4.25763E+01    3.23114E-19
    5.77000E+02    4.21854E+01    4.77657E-19
    5.77100E+02    4.17958E+01    7.05228E-19
    5.77200E+02    4.14148E+01    1.03224E-18
    5.77300E+02    4.10419E+01    1.49868E-18
    5.77400E+02    4.06706E+01    2.17268E-18
    5.77500E+02    4.03062E+01    3.12783E-18
    5.77600E+02    3.99472E+01    4.47873E-18
    5.77700E+02    3.95935E+01    6.37909E-18
    5.77800E+02    3.92454E+01    9.03528E-18
    5.77900E+02    3.89068E+01    1.26766E-17
    5.78000E+02    3.85625E+01    1.78858E-17
    5.78100E+02    3.82275E+01    2.50027E-17
    5.78200E+02    3.78978E+01    3.47701E-17
    5.78300E+02    3.75725E+01    4.81355E-17
    5.78400E+02    3.72518E+01    6.63392E-17
    5.78500E+02    3.69355E+01    9.10199E-17
    5.78600E+02    3.66246E+01    1.24203E-16
    5.78700E+02    3.63160E+01    1.69110E-16
    5.78800E+02    3.60120E+01    2.29186E-16
    5.78900E+02    3.57123E+01    3.09264E-16
    5.79000E+02    3.54168E+01    4.15614E-16
    5.79100E+02    3.51252E+01    5.56288E-16
    5.79200E+02    3.48374E+01    7.41856E-16
    5.79300E+02    3.45535E+01    9.85405E-16
    5.79400E+02    3.42732E+01    1.30418E-15
    5.79500E+02    3.39965E+01    1.71985E-15
    5.79600E+02    3.37235E+01    2.25976E-15
    5.79700E+02    3.34541E+01    2.95852E-15
    5.79800E+02    3.31879E+01    3.86077E-15
    5.79900E+02    3.29255E+01    5.01931E-15
    5.80000E+02    3.26682E+01    6.49216E-15
    5.80100E+02    3.24103E+01    8.40165E-15
    5.80200E+02    3.21581E+01    1.08119E-14
    5.80300E+02    3.19085E+01    1.38771E-14
    5.80400E+02    3.16627E+01    1.77450E-14
    5.80500E+02    3.14190E+01    2.26415E-14
    5.80600E+02    3.11789E+01    2.87867E-14
    5.80700E+02    3.09417E+01    3.64926E-14
    5.80800E+02    3.07073E+01    4.61286E-14
    5.80900E+02    3.04764E+01    5.81146E-14
    5.81000E+02    3.02486E+01    7.29797E-14
    5.81100E+02    3.00231E+01    9.14400E-14
    5.81200E+02    2.98006E+01    1.14230E-13
    5.81300E+02    2.95836E+01    1.41901E-13
    5.81400E+02    2.93651E+01    1.76561E-13
    5.81500E+02    2.91514E+01    2.18630E-13
    5.81600E+02    2.89408E+01    2.69888E-13
    5.81700E+02    2.87347E+01    3.31661E-13
    5.81800E+02    2.85345E+01    4.05177E-13
    5.81900E+02    2.83415E+01    4.91426E-13
    5.82000E+02    2.81710E+01    5.82777E-13
    5.82100E+02    2.81160E+01    6.15730E-13
    5.82200E+02    2.78879E+01    7.73485E-13
    5.82300E+02    2.76287E+01    1.00230E-12
    5.82400E+02    2.73641E+01    1.30598E-12
    5.82500E+02    2.71529E+01    1.61305E-12
    5.82600E+02    2.69555E+01    1.96498E-12
    5.82700E+02    2.67642E+01    2.37943E-12
    5.82800E+02    2.65766E+01    2.87044E-12
    5.82900E+02    2.63926E+01    3.45002E-12
    5.83000E+02    2.62118E+01    4.13402E-12
    5.83100E+02    2.60336E+01    4.94047E-12
    5.83200E+02    2.58601E+01    5.87626E-12
    5.83300E+02    2.56938E+01    6.93916E-12
    5.83400E+02    2.55549E+01    7.97315E-12
    5.83500E+02    2.54623E+01    8.74741E-12
    5.83600E+02    2.51908E+01    1.14758E-11
    5.83700E+02    2.50073E+01    1.37871E-11
    5.83800E+02    2.48370E+01    1.63468E-11
    5.83900E+02    2.46791E+01    1.91421E-11
    5.84000E+02    2.45081E+01    2.27131E-11
    5.84100E+02    2.43464E+01    2.66998E-11
    5.84200E+02    2.41874E+01    3.13008E-11
    5.84300E+02    2.40305E+01    3.66175E-11
    5.84400E+02    2.38755E+01    4.27575E-11
    5.84500E+02    2.37222E+01    4.98385E-11
    5.84600E+02    2.35716E+01    5.79418E-11
    5.84700E+02    2.34208E+01    6.73697E-11
    5.84800E+02    2.32720E+01    7.81772E-11
    5.84900E+02    2.31252E+01    9.05440E-11
    5.85000E+02    2.29800E+01    1.04690E-10
    5.85100E+02    2.28365E+01    1.20844E-10
    5.85200E+02    2.26943E+01    1.39316E-10
    5.85300E+02    2.25541E+01    1.60273E-10
    5.85400E+02    2.24149E+01    1.84219E-10
    5.85500E+02    2.22770E+01    2.11448E-10
    5.85600E+02    2.21409E+01    2.42275E-10
    5.85700E+02    2.20066E+01    2.77106E-10
    5.85800E+02    2.18730E+01    3.16706E-10
    5.85900E+02    2.17406E+01    3.61551E-10
    5.86000E+02    2.16101E+01    4.11955E-10
    5.86100E+02    2.14808E+01    4.68834E-10
    5.86200E+02    2.13525E+01    5.33023E-10
    5.86300E+02    2.12258E+01    6.05009E-10
    5.86400E+02    2.11005E+01    6.85744E-10
    5.86500E+02    2.09764E+01    7.76344E-10
    5.86600E+02    2.08535E+01    8.77891E-10
    5.86700E+02    2.07319E+01    9.91445E-10
    5.86800E+02    2.06124E+01    1.11720E-09
    5.86900E+02    2.04919E+01    1.26033E-09
    5.87000E+02    2.03743E+01    1.41756E-09
    5.87100E+02    2.02567E+01    1.59459E-09
    5.87200E+02    2.01408E+01    1.79053E-09
    5.87300E+02    2.00258E+01    2.00858E-09
    5.87400E+02    1.99124E+01    2.24979E-09
    5.87500E+02    1.97999E+01    2.51781E-09
    5.87600E+02    1.96886E+01    2.81429E-09
    5.87700E+02    1.95785E+01    3.14156E-09
    5.87800E+02    1.94694E+01    3.50383E-09
    5.87900E+02    1.93611E+01    3.90473E-09
    5.88000E+02    1.92538E+01    4.34684E-09
    5.88100E+02    1.91482E+01    4.83127E-09
    5.88200E+02    1.90429E+01    5.36779E-09
    5.88300E+02    1.89389E+01    5.95558E-09
    5.88400E+02    1.88364E+01    6.59834E-09
    5.88500E+02    1.87341E+01    7.30972E-09
    5.88600E+02    1.86328E+01    8.08891E-09
    5.88700E+02    1.85328E+01    8.93923E-09
    5.88800E+02    1.84338E+01    9.86932E-09
    5.88900E+02    1.83363E+01    1.08801E-08
    5.89000E+02    1.82404E+01    1.19754E-08
    5.89100E+02    1.81616E+01    1.29572E-08
    5.89200E+02    1.80494E+01    1.44964E-08
    5.89300E+02    1.79526E+01    1.59700E-08
    5.89400E+02    1.78585E+01    1.75452E-08
    5.89500E+02    1.77653E+01    1.92584E-08
    5.89600E+02    1.76733E+01    2.11150E-08
    5.89700E+02    1.75824E+01    2.31241E-08
    5.89800E+02    1.74922E+01    2.53060E-08
    5.89900E+02    1.74037E+01    2.76486E-08
    5.90000E+02    1.73161E+01    3.01811E-08
    5.90100E+02    1.72305E+01    3.28779E-08
    5.90200E+02    1.71499E+01    3.56357E-08
    5.90300E+02    1.70963E+01    3.75980E-08
    5.90400E+02    1.69951E+01    4.16023E-08
    5.90500E+02    1.68918E+01    4.61296E-08
    5.90600E+02    1.68042E+01    5.03529E-08
    5.90700E+02    1.67207E+01    5.47372E-08
    5.90800E+02    1.66406E+01    5.93052E-08
    5.90900E+02    1.65667E+01    6.38513E-08
    5.91000E+02    1.65516E+01    6.48234E-08
    5.91100E+02    1.64157E+01    7.42575E-08
    5.91200E+02    1.63603E+01    7.84867E-08
    5.91300E+02    1.62771E+01    8.53009E-08
    5.91400E+02    1.61669E+01    9.52365E-08
    5.91500E+02    1.60821E+01    1.03662E-07
    5.91600E+02    1.60027E+01    1.12229E-07
    5.91700E+02    1.59251E+01    1.21289E-07
    5.91800E+02    1.58490E+01    1.30874E-07
    5.91900E+02    1.57743E+01    1.41033E-07
    5.92000E+02    1.57003E+01    1.51854E-07
    5.92100E+02    1.56277E+01    1.63298E-07
    5.92200E+02    1.55563E+01    1.75387E-07
    5.92300E+02    1.54872E+01    1.87927E-07
    5.92400E+02    1.54231E+01    2.00361E-07
    5.92500E+02    1.53699E+01    2.11310E-07
    5.92600E+02    1.54071E+01    2.03603E-07
    5.92700E+02    1.52664E+01    2.34370E-07
    5.92800E+02    1.51502E+01    2.63244E-07
    5.92900E+02    1.50701E+01    2.85195E-07
    5.93000E+02    1.49971E+01    3.06788E-07
