#	Freq	Err	Trans
    5.49900E+02    5.44314E+01    2.29479E-24
    5.50000E+02    5.58761E+01    5.41163E-25
    5.50100E+02    5.73838E+01    1.19819E-25
    5.50200E+02    5.89575E+01    2.48349E-26
    5.50300E+02    6.06002E+01    4.80458E-27
    5.50400E+02    6.23165E+01    8.63555E-28
    5.50500E+02    6.41101E+01    1.43661E-28
    5.50600E+02    6.59848E+01    2.20376E-29
    5.50700E+02    6.79478E+01    3.09497E-30
    5.50800E+02    7.00102E+01    3.93527E-31
    5.50900E+02    7.22058E+01    4.37964E-32
    5.51000E+02    7.47350E+01    3.49129E-33
    5.51100E+02    7.67712E+01    4.55691E-34
    5.51200E+02    7.91838E+01    4.08227E-35
    5.51300E+02    8.17585E+01    3.10994E-36
    5.51400E+02    8.44970E+01    2.01100E-37
    5.51500E+02    8.72930E+01    1.22782E-38
    5.51600E+02    9.02325E+01    6.49400E-40
    5.51700E+02    9.33364E+01    2.91421E-41
    5.51800E+02    9.66087E+01    1.10499E-42
    5.51900E+02    1.00046E+02    3.55360E-44
    5.52000E+02    1.03661E+02    9.56679E-46
    5.52100E+02    1.07466E+02    2.12802E-47
    5.52200E+02    1.11471E+02    3.87871E-49
    5.52300E+02    1.15692E+02    5.69799E-51
    5.52400E+02    1.20150E+02    6.59999E-53
    5.52500E+02    1.24855E+02    5.97292E-55
    5.52600E+02    1.29830E+02    4.12786E-57
    5.52700E+02    1.35090E+02    2.14431E-59
    5.52800E+02    1.40665E+02    8.12487E-62
    5.52900E+02    1.46568E+02    2.21950E-64
    5.53000E+02    1.52833E+02    4.22094E-67
    5.53100E+02    1.59482E+02    5.47089E-70
    5.53200E+02    1.66543E+02    4.68976E-73
    5.53300E+02    1.74057E+02    2.55839E-76
    5.53400E+02    1.82051E+02    8.63877E-80
    5.53500E+02    1.90561E+02    1.73936E-83
    5.53600E+02    1.99635E+02    1.99333E-87
    5.53700E+02    2.09303E+02    1.26125E-91
    5.53800E+02    2.19632E+02    4.12097E-96
    5.53900E+02    2.30667E+02    6.64768E-100
    5.54000E+02    2.42460E+02    5.02384E-100
    5.54100E+02    2.55079E+02    1.66264E-100
    5.54200E+02    2.68575E+02    2.28644E-100
    5.54300E+02    2.83041E+02    1.19398E-100
    5.54400E+02    2.98534E+02    2.23077E-100
    5.54500E+02    3.15137E+02    1.37269E-100
    5.54600E+02    3.32934E+02    2.56230E-100
    5.54700E+02    3.52021E+02    1.31570E-100
    5.54800E+02    3.72481E+02    1.71235E-100
    5.54900E+02    3.94411E+02    5.12116E-100
    5.55000E+02    4.17902E+02    3.21713E-100
    5.55100E+02    4.43043E+02    3.87996E-100
    5.55200E+02    4.69925E+02    8.21013E-100
    5.55300E+02    4.98621E+02    2.82771E-100
    5.55400E+02    5.29194E+02    1.49232E-100
    5.55500E+02    5.61678E+02    1.16458E-100
    5.55600E+02    5.96076E+02    1.34161E-100
    5.55700E+02    6.32348E+02    2.36907E-100
    5.55800E+02    6.70399E+02    7.06991E-100
    5.55900E+02    7.10062E+02    4.20591E-100
    5.56000E+02    7.51061E+02    0.00000E+00
    5.56100E+02    7.93057E+02    0.00000E+00
    5.56200E+02    8.35504E+02    0.00000E+00
    5.56300E+02    8.77652E+02    0.00000E+00
    5.56400E+02    9.18748E+02    0.00000E+00
    5.56500E+02    9.57671E+02    0.00000E+00
    5.56600E+02    9.93072E+02    0.00000E+00
    5.56700E+02    1.02325E+03    0.00000E+00
    5.56800E+02    1.04632E+03    0.00000E+00
    5.56900E+02    1.05959E+03    0.00000E+00
    5.57000E+02    1.05756E+03    0.00000E+00
    5.57100E+02    1.04195E+03    0.00000E+00
    5.57200E+02    1.01735E+03    0.00000E+00
    5.57300E+02    9.86223E+02    0.00000E+00
    5.57400E+02    9.50296E+02    0.00000E+00
    5.57500E+02    9.11144E+02    0.00000E+00
    5.57600E+02    8.70118E+02    0.00000E+00
    5.57700E+02    8.28193E+02    0.00000E+00
    5.57800E+02    7.86119E+02    0.00000E+00
    5.57900E+02    7.44662E+02    4.94066E-100
    5.58000E+02    7.04226E+02    1.44076E-100
    5.58100E+02    6.65127E+02    1.37755E-100
    5.58200E+02    6.27681E+02    2.52202E-100
    5.58300E+02    5.92014E+02    7.78746E-100
    5.58400E+02    5.58210E+02    3.73815E-100
    5.58500E+02    5.26288E+02    2.72971E-100
    5.58600E+02    4.96256E+02    3.01047E-100
    5.58700E+02    4.68062E+02    5.28506E-100
    5.58800E+02    4.41639E+02    1.58011E-100
    5.58900E+02    4.16925E+02    8.54255E-100
    5.59000E+02    3.93825E+02    9.20095E-100
    5.59100E+02    3.72254E+02    2.14817E-100
    5.59200E+02    3.52117E+02    1.19513E-100
    5.59300E+02    3.33322E+02    1.73797E-100
    5.59400E+02    3.15783E+02    7.19968E-100
    5.59500E+02    2.99420E+02    9.19035E-100
    5.59600E+02    2.84131E+02    4.01460E-100
    5.59700E+02    2.69873E+02    6.24566E-100
    5.59800E+02    2.56623E+02    3.54834E-100
    5.59900E+02    2.44096E+02    9.78272E-100
    5.60000E+02    2.32377E+02    1.20229E-100
    5.60100E+02    2.21436E+02    6.78257E-97
    5.60200E+02    2.11193E+02    1.90536E-92
    5.60300E+02    2.01590E+02    2.82232E-88
    5.60400E+02    1.92581E+02    2.30839E-84
    5.60500E+02    1.84119E+02    1.09153E-80
    5.60600E+02    1.76167E+02    3.10153E-77
    5.60700E+02    1.68688E+02    5.48994E-74
    5.60800E+02    1.61652E+02    6.24147E-71
    5.60900E+02    1.55021E+02    4.73235E-68
    5.61000E+02    1.48765E+02    2.46589E-65
    5.61100E+02    1.42862E+02    9.03114E-63
    5.61200E+02    1.37289E+02    2.37776E-60
    5.61300E+02    1.32023E+02    4.60282E-58
    5.61400E+02    1.27035E+02    6.75045E-56
    5.61500E+02    1.22317E+02    7.55529E-54
    5.61600E+02    1.17847E+02    6.60491E-52
    5.61700E+02    1.13609E+02    4.57383E-50
    5.61800E+02    1.09588E+02    2.54975E-48
    5.61900E+02    1.05770E+02    1.16033E-46
    5.62000E+02    1.02139E+02    4.37957E-45
    5.62100E+02    9.86891E+01    1.38002E-43
    5.62200E+02    9.54034E+01    3.68823E-42
    5.62300E+02    9.22755E+01    8.41877E-41
    5.62400E+02    8.92977E+01    1.65395E-39
    5.62500E+02    8.64548E+01    2.83897E-38
    5.62600E+02    8.37471E+01    4.25696E-37
    5.62700E+02    8.11600E+01    5.65806E-36
    5.62800E+02    7.86858E+01    6.71740E-35
    5.62900E+02    7.63215E+01    7.14497E-34
    5.63000E+02    7.40654E+01    6.82040E-33
    5.63100E+02    7.19033E+01    5.92625E-32
    5.63200E+02    6.98322E+01    4.70165E-31
    5.63300E+02    6.78504E+01    3.41167E-30
    5.63400E+02    6.59560E+01    2.26824E-29
    5.63500E+02    6.41305E+01    1.40753E-28
    5.63600E+02    6.23751E+01    8.14414E-28
    5.63700E+02    6.06939E+01    4.37490E-27
    5.63800E+02    5.90801E+01    2.19703E-26
    5.63900E+02    5.75287E+01    1.03654E-25
    5.64000E+02    5.60384E+01    4.60091E-25
    5.64100E+02    5.46043E+01    1.93051E-24
    5.64200E+02    5.32243E+01    7.67326E-24
    5.64300E+02    5.18956E+01    2.89740E-23
    5.64400E+02    5.06166E+01    1.04110E-22
    5.64500E+02    4.93832E+01    3.57401E-22
    5.64600E+02    4.81946E+01    1.17311E-21
    5.64700E+02    4.70482E+01    3.69170E-21
    5.64800E+02    4.59424E+01    1.11547E-20
    5.64900E+02    4.48759E+01    3.24090E-20
    5.65000E+02    4.38453E+01    9.08285E-20
    5.65100E+02    4.28510E+01    2.45497E-19
    5.65200E+02    4.18900E+01    6.41776E-19
    5.65300E+02    4.09619E+01    1.62363E-18
    5.65400E+02    4.00655E+01    3.97906E-18
    5.65500E+02    3.91998E+01    9.45637E-18
    5.65600E+02    3.83682E+01    2.17228E-17
    5.65700E+02    3.76298E+01    4.54551E-17
    5.65800E+02    3.67738E+01    1.06987E-16
    5.65900E+02    3.60087E+01    2.29946E-16
    5.66000E+02    3.52799E+01    4.76559E-16
    5.66100E+02    3.45917E+01    9.48411E-16
    5.66200E+02    3.39915E+01    1.72858E-15
    5.66300E+02    3.39771E+01    1.75363E-15
    5.66400E+02    3.26508E+01    6.60572E-15
    5.66500E+02    3.19495E+01    1.33204E-14
    5.66600E+02    3.13334E+01    2.46643E-14
    5.66700E+02    3.08451E+01    4.01940E-14
    5.66800E+02    3.02060E+01    7.61554E-14
    5.66900E+02    2.96174E+01    1.37186E-13
    5.67000E+02    2.90084E+01    2.52242E-13
    5.67100E+02    2.84547E+01    4.38793E-13
    5.67200E+02    2.79242E+01    7.45876E-13
    5.67300E+02    2.74117E+01    1.24526E-12
    5.67400E+02    2.69155E+01    2.04518E-12
    5.67500E+02    2.64335E+01    3.31177E-12
    5.67600E+02    2.59655E+01    5.28852E-12
    5.67700E+02    2.55111E+01    8.33031E-12
    5.67800E+02    2.50754E+01    1.28795E-11
    5.67900E+02    2.46375E+01    1.99556E-11
    5.68000E+02    2.42167E+01    3.03958E-11
    5.68100E+02    2.38077E+01    4.57540E-11
    5.68200E+02    2.34097E+01    6.81248E-11
    5.68300E+02    2.30216E+01    1.00425E-10
    5.68400E+02    2.26435E+01    1.46576E-10
    5.68500E+02    2.22752E+01    2.11828E-10
    5.68600E+02    2.19154E+01    3.03568E-10
    5.68700E+02    2.15655E+01    4.30746E-10
    5.68800E+02    2.12235E+01    6.06367E-10
    5.68900E+02    2.08902E+01    8.46253E-10
    5.69000E+02    2.05647E+01    1.17180E-09
    5.69100E+02    2.02477E+01    1.60887E-09
    5.69200E+02    1.99374E+01    2.19435E-09
    5.69300E+02    1.96356E+01    2.96730E-09
    5.69400E+02    1.93405E+01    3.98594E-09
    5.69500E+02    1.90515E+01    5.32154E-09
    5.69600E+02    1.87711E+01    7.04402E-09
    5.69700E+02    1.84977E+01    9.25886E-09
    5.69800E+02    1.82339E+01    1.20537E-08
    5.69900E+02    1.79839E+01    1.54769E-08
    5.70000E+02    1.77696E+01    1.91752E-08
    5.70100E+02    1.78632E+01    1.74619E-08
    5.70200E+02    1.72682E+01    3.16594E-08
    5.70300E+02    1.69875E+01    4.19202E-08
    5.70400E+02    1.67404E+01    5.36723E-08
    5.70500E+02    1.65072E+01    6.77641E-08
    5.70600E+02    1.62834E+01    8.47593E-08
    5.70700E+02    1.60702E+01    1.04908E-07
    5.70800E+02    1.58775E+01    1.27205E-07
    5.70900E+02    1.57455E+01    1.45144E-07
    5.71000E+02    1.63123E+01    8.23494E-08
    5.71100E+02    1.53303E+01    2.19857E-07
    5.71200E+02    1.50500E+01    2.90980E-07
    5.71300E+02    1.48289E+01    3.62987E-07
    5.71400E+02    1.46261E+01    4.44593E-07
    5.71500E+02    1.44316E+01    5.40034E-07
    5.71600E+02    1.42441E+01    6.51401E-07
    5.71700E+02    1.40610E+01    7.82348E-07
    5.71800E+02    1.38823E+01    9.35349E-07
    5.71900E+02    1.37072E+01    1.11435E-06
    5.72000E+02    1.35362E+01    1.32218E-06
    5.72100E+02    1.33693E+01    1.56240E-06
    5.72200E+02    1.32049E+01    1.84159E-06
    5.72300E+02    1.30446E+01    2.16177E-06
    5.72400E+02    1.28878E+01    2.52873E-06
    5.72500E+02    1.27349E+01    2.94655E-06
    5.72600E+02    1.25862E+01    3.41900E-06
    5.72700E+02    1.24461E+01    3.93313E-06
    5.72800E+02    1.23295E+01    4.41944E-06
    5.72900E+02    1.22688E+01    4.69615E-06
    5.73000E+02    1.20257E+01    5.98840E-06
    5.73100E+02    1.18723E+01    6.98108E-06
    5.73200E+02    1.17321E+01    8.03173E-06
    5.73300E+02    1.15985E+01    9.17969E-06
    5.73400E+02    1.14715E+01    1.04227E-05
    5.73500E+02    1.13597E+01    1.16559E-05
    5.73600E+02    1.14130E+01    1.10511E-05
    5.73700E+02    1.11095E+01    1.49689E-05
    5.73800E+02    1.09675E+01    1.72527E-05
    5.73900E+02    1.08415E+01    1.95702E-05
    5.74000E+02    1.07213E+01    2.20701E-05
    5.74100E+02    1.06041E+01    2.48149E-05
    5.74200E+02    1.04900E+01    2.78137E-05
    5.74300E+02    1.03789E+01    3.10818E-05
    5.74400E+02    1.02736E+01    3.45323E-05
    5.74500E+02    1.01917E+01    3.74793E-05
    5.74600E+02    1.00744E+01    4.21427E-05
    5.74700E+02    9.95098E+00    4.76810E-05
    5.74800E+02    9.84293E+00    5.31212E-05
    5.74900E+02    9.73979E+00    5.88927E-05
    5.75000E+02    9.63912E+00    6.51302E-05
    5.75100E+02    9.54037E+00    7.18900E-05
    5.75200E+02    9.44330E+00    7.92189E-05
    5.75300E+02    9.34791E+00    8.71478E-05
    5.75400E+02    9.25417E+00    9.57117E-05
    5.75500E+02    9.16198E+00    1.04955E-04
    5.75600E+02    9.07148E+00    1.14897E-04
    5.75700E+02    8.98276E+00    1.25556E-04
    5.75800E+02    8.89535E+00    1.37025E-04
    5.75900E+02    8.80917E+00    1.49357E-04
    5.76000E+02    8.72502E+00    1.62469E-04
    5.76100E+02    8.64330E+00    1.76303E-04
    5.76200E+02    8.56504E+00    1.90657E-04
    5.76300E+02    8.49317E+00    2.04863E-04
    5.76400E+02    8.43963E+00    2.16130E-04
    5.76500E+02    8.54139E+00    1.95219E-04
    5.76600E+02    8.30206E+00    2.48006E-04
    5.76700E+02    8.18397E+00    2.79091E-04
    5.76800E+02    8.09837E+00    3.04035E-04
    5.76900E+02    8.01650E+00    3.29972E-04
    5.77000E+02    7.94086E+00    3.55899E-04
    5.77100E+02    7.86649E+00    3.83378E-04
    5.77200E+02    7.79424E+00    4.12103E-04
    5.77300E+02    7.72362E+00    4.42255E-04
    5.77400E+02    7.65352E+00    4.74374E-04
    5.77500E+02    7.58488E+00    5.08077E-04
    5.77600E+02    7.51736E+00    5.43568E-04
    5.77700E+02    7.45096E+00    5.80887E-04
    5.77800E+02    7.38590E+00    6.19932E-04
    5.77900E+02    7.32676E+00    6.57703E-04
    5.78000E+02    7.25772E+00    7.04710E-04
    5.78100E+02    7.19442E+00    7.50760E-04
    5.78200E+02    7.13242E+00    7.98782E-04
    5.78300E+02    7.07135E+00    8.49084E-04
    5.78400E+02    7.01118E+00    9.01748E-04
    5.78500E+02    6.95192E+00    9.56800E-04
    5.78600E+02    6.89454E+00    1.01331E-03
    5.78700E+02    6.83579E+00    1.07461E-03
    5.78800E+02    6.77873E+00    1.13771E-03
    5.78900E+02    6.72245E+00    1.20359E-03
    5.79000E+02    6.66702E+00    1.27219E-03
    5.79100E+02    6.61236E+00    1.34366E-03
    5.79200E+02    6.55841E+00    1.41814E-03
    5.79300E+02    6.50521E+00    1.49563E-03
    5.79400E+02    6.45270E+00    1.57626E-03
    5.79500E+02    6.40088E+00    1.66010E-03
    5.79600E+02    6.34974E+00    1.74721E-03
    5.79700E+02    6.29930E+00    1.83760E-03
    5.79800E+02    6.24950E+00    1.93142E-03
    5.79900E+02    6.20053E+00    2.02835E-03
    5.80000E+02    6.15373E+00    2.12554E-03
    5.80100E+02    6.10415E+00    2.23358E-03
    5.80200E+02    6.05725E+00    2.34082E-03
    5.80300E+02    6.01036E+00    2.45321E-03
    5.80400E+02    5.96494E+00    2.56719E-03
    5.80500E+02    5.91878E+00    2.68848E-03
    5.80600E+02    5.87389E+00    2.81190E-03
    5.80700E+02    5.82963E+00    2.93915E-03
    5.80800E+02    5.78600E+00    3.07023E-03
    5.80900E+02    5.74311E+00    3.20480E-03
    5.81000E+02    5.70115E+00    3.34211E-03
    5.81100E+02    5.65915E+00    3.48547E-03
    5.81200E+02    5.61821E+00    3.63115E-03
    5.81300E+02    5.58027E+00    3.77154E-03
    5.81400E+02    5.53873E+00    3.93153E-03
    5.81500E+02    5.50009E+00    4.08641E-03
    5.81600E+02    5.46232E+00    4.24372E-03
    5.81700E+02    5.42673E+00    4.39745E-03
    5.81800E+02    5.39538E+00    4.53747E-03
    5.81900E+02    5.36902E+00    4.65872E-03
    5.82000E+02    5.36319E+00    4.68593E-03
    5.82100E+02    5.47120E+00    4.20620E-03
    5.82200E+02    5.40386E+00    4.49917E-03
    5.82300E+02    5.30385E+00    4.97242E-03
    5.82400E+02    5.19635E+00    5.53673E-03
    5.82500E+02    5.14073E+00    5.85339E-03
    5.82600E+02    5.09699E+00    6.11515E-03
    5.82700E+02    5.05726E+00    6.36294E-03
    5.82800E+02    5.01998E+00    6.60465E-03
    5.82900E+02    4.98447E+00    6.84342E-03
    5.83000E+02    4.95037E+00    7.08077E-03
    5.83100E+02    4.91728E+00    7.31904E-03
    5.83200E+02    4.88701E+00    7.54392E-03
    5.83300E+02    4.86265E+00    7.72998E-03
    5.83400E+02    4.86399E+00    7.71966E-03
    5.83500E+02    4.90995E+00    7.37287E-03
    5.83600E+02    4.77581E+00    8.43128E-03
    5.83700E+02    4.72802E+00    8.84393E-03
    5.83800E+02    4.69178E+00    9.17034E-03
    5.83900E+02    4.66671E+00    9.40318E-03
    5.84000E+02    4.62681E+00    9.78588E-03
    5.84100E+02    4.59492E+00    1.01030E-02
    5.84200E+02    4.56416E+00    1.04186E-02
    5.84300E+02    4.53421E+00    1.07354E-02
    5.84400E+02    4.50478E+00    1.10560E-02
    5.84500E+02    4.47587E+00    1.13804E-02
    5.84600E+02    4.44824E+00    1.16992E-02
    5.84700E+02    4.41917E+00    1.20443E-02
    5.84800E+02    4.39080E+00    1.23908E-02
    5.84900E+02    4.36306E+00    1.27393E-02
    5.85000E+02    4.33567E+00    1.30930E-02
    5.85100E+02    4.30869E+00    1.34511E-02
    5.85200E+02    4.28199E+00    1.38152E-02
    5.85300E+02    4.25573E+00    1.41827E-02
    5.85400E+02    4.22942E+00    1.45609E-02
    5.85500E+02    4.20352E+00    1.49429E-02
    5.85600E+02    4.17805E+00    1.53284E-02
    5.85700E+02    4.15307E+00    1.57161E-02
    5.85800E+02    4.12787E+00    1.61171E-02
    5.85900E+02    4.10281E+00    1.65262E-02
    5.86000E+02    4.07840E+00    1.69346E-02
    5.86100E+02    4.05418E+00    1.73497E-02
    5.86200E+02    4.02998E+00    1.77748E-02
    5.86300E+02    4.00614E+00    1.82036E-02
    5.86400E+02    3.98274E+00    1.86345E-02
    5.86500E+02    3.95950E+00    1.90726E-02
    5.86600E+02    3.93649E+00    1.95167E-02
    5.86700E+02    3.91378E+00    1.99649E-02
    5.86800E+02    3.89229E+00    2.03987E-02
    5.86900E+02    3.86871E+00    2.08852E-02
    5.87000E+02    3.84715E+00    2.13404E-02
    5.87100E+02    3.82447E+00    2.18301E-02
    5.87200E+02    3.80262E+00    2.23123E-02
    5.87300E+02    3.78109E+00    2.27978E-02
    5.87400E+02    3.75975E+00    2.32897E-02
    5.87500E+02    3.73863E+00    2.37866E-02
    5.87600E+02    3.71777E+00    2.42880E-02
    5.87700E+02    3.69722E+00    2.47924E-02
    5.87800E+02    3.67691E+00    2.53010E-02
    5.87900E+02    3.65644E+00    2.58244E-02
    5.88000E+02    3.63635E+00    2.63485E-02
    5.88100E+02    3.61659E+00    2.68743E-02
    5.88200E+02    3.59685E+00    2.74099E-02
    5.88300E+02    3.57750E+00    2.79455E-02
    5.88400E+02    3.55863E+00    2.84779E-02
    5.88500E+02    3.53917E+00    2.90374E-02
    5.88600E+02    3.52019E+00    2.95937E-02
    5.88700E+02    3.50157E+00    3.01500E-02
    5.88800E+02    3.48324E+00    3.07079E-02
    5.88900E+02    3.46543E+00    3.12595E-02
    5.89000E+02    3.44888E+00    3.17811E-02
    5.89100E+02    3.44845E+00    3.17949E-02
    5.89200E+02    3.41362E+00    3.29219E-02
    5.89300E+02    3.39390E+00    3.35776E-02
    5.89400E+02    3.37590E+00    3.41872E-02
    5.89500E+02    3.35852E+00    3.47868E-02
    5.89600E+02    3.34125E+00    3.53927E-02
    5.89700E+02    3.32451E+00    3.59903E-02
    5.89800E+02    3.30783E+00    3.65954E-02
    5.89900E+02    3.29178E+00    3.71875E-02
    5.90000E+02    3.27633E+00    3.77666E-02
    5.90100E+02    3.26227E+00    3.83012E-02
    5.90200E+02    3.25257E+00    3.86747E-02
    5.90300E+02    3.26919E+00    3.80372E-02
    5.90400E+02    3.23752E+00    3.92612E-02
    5.90500E+02    3.20313E+00    4.06347E-02
    5.90600E+02    3.18379E+00    4.14285E-02
    5.90700E+02    3.16787E+00    4.20933E-02
    5.90800E+02    3.15466E+00    4.26529E-02
    5.90900E+02    3.14738E+00    4.29645E-02
    5.91000E+02    3.19823E+00    4.08344E-02
    5.91100E+02    3.12766E+00    4.38203E-02
    5.91200E+02    3.13688E+00    4.34180E-02
    5.91300E+02    3.11761E+00    4.42627E-02
    5.91400E+02    3.07106E+00    4.63720E-02
    5.91500E+02    3.04929E+00    4.73926E-02
    5.91600E+02    3.03222E+00    4.82085E-02
    5.91700E+02    3.01656E+00    4.89692E-02
    5.91800E+02    3.00186E+00    4.96948E-02
    5.91900E+02    2.98778E+00    5.03990E-02
    5.92000E+02    2.97419E+00    5.10890E-02
    5.92100E+02    2.96123E+00    5.17553E-02
    5.92200E+02    2.94914E+00    5.23849E-02
    5.92300E+02    2.93878E+00    5.29302E-02
    5.92400E+02    2.93276E+00    5.32501E-02
    5.92500E+02    2.93722E+00    5.30126E-02
    5.92600E+02    3.03142E+00    4.82471E-02
    5.92700E+02    2.94736E+00    5.24779E-02
    5.92800E+02    2.88755E+00    5.57124E-02
    5.92900E+02    2.86281E+00    5.71082E-02
    5.93000E+02    2.84519E+00    5.81234E-02
    5.93100E+02    2.83013E+00    5.90051E-02
