#	Freq	Err	Trans
    5.49900E+02    2.53883E+02    5.49305E-100
    5.50000E+02    2.60624E+02    6.49097E-100
    5.50100E+02    2.67659E+02    5.71969E-100
    5.50200E+02    2.75000E+02    3.70739E-100
    5.50300E+02    2.82662E+02    1.74413E-100
    5.50400E+02    2.90665E+02    5.83308E-100
    5.50500E+02    2.99026E+02    1.36344E-100
    5.50600E+02    3.07760E+02    2.19558E-100
    5.50700E+02    3.16892E+02    2.37338E-100
    5.50800E+02    3.26453E+02    1.67142E-100
    5.50900E+02    3.36493E+02    7.29588E-100
    5.51000E+02    3.47229E+02    1.58560E-100
    5.51100E+02    3.57861E+02    3.82825E-100
    5.51200E+02    3.69258E+02    4.29609E-100
    5.51300E+02    3.81290E+02    2.55893E-100
    5.51400E+02    3.93900E+02    8.54134E-100
    5.51500E+02    4.07064E+02    1.63856E-100
    5.51600E+02    4.20894E+02    1.61506E-100
    5.51700E+02    4.35408E+02    8.02585E-100
    5.51800E+02    4.50693E+02    1.84789E-100
    5.51900E+02    4.66740E+02    1.98387E-100
    5.52000E+02    4.83614E+02    9.31193E-100
    5.52100E+02    5.01377E+02    1.79726E-100
    5.52200E+02    5.20069E+02    1.37096E-100
    5.52300E+02    5.39765E+02    3.82958E-100
    5.52400E+02    5.60572E+02    3.51955E-100
    5.52500E+02    5.82530E+02    1.02387E-100
    5.52600E+02    6.05746E+02    8.47098E-100
    5.52700E+02    6.30291E+02    1.85436E-100
    5.52800E+02    6.56306E+02    9.32638E-100
    5.52900E+02    6.83860E+02    1.00735E-100
    5.53000E+02    7.13098E+02    2.01991E-100
    5.53100E+02    7.44124E+02    4.94066E-100
    5.53200E+02    7.77079E+02    0.00000E+00
    5.53300E+02    8.12138E+02    0.00000E+00
    5.53400E+02    8.49441E+02    0.00000E+00
    5.53500E+02    8.89160E+02    0.00000E+00
    5.53600E+02    9.31509E+02    0.00000E+00
    5.53700E+02    9.76627E+02    0.00000E+00
    5.53800E+02    1.02483E+03    0.00000E+00
    5.53900E+02    1.07633E+03    0.00000E+00
    5.54000E+02    1.13136E+03    0.00000E+00
    5.54100E+02    1.19025E+03    0.00000E+00
    5.54200E+02    1.25323E+03    0.00000E+00
    5.54300E+02    1.32074E+03    0.00000E+00
    5.54400E+02    1.39304E+03    0.00000E+00
    5.54500E+02    1.47052E+03    0.00000E+00
    5.54600E+02    1.55357E+03    0.00000E+00
    5.54700E+02    1.64264E+03    0.00000E+00
    5.54800E+02    1.73812E+03    0.00000E+00
    5.54900E+02    1.84047E+03    0.00000E+00
    5.55000E+02    1.95009E+03    0.00000E+00
    5.55100E+02    2.06741E+03    0.00000E+00
    5.55200E+02    2.19286E+03    0.00000E+00
    5.55300E+02    2.32678E+03    0.00000E+00
    5.55400E+02    2.46945E+03    0.00000E+00
    5.55500E+02    2.62104E+03    0.00000E+00
    5.55600E+02    2.78157E+03    0.00000E+00
    5.55700E+02    2.95084E+03    0.00000E+00
    5.55800E+02    3.12841E+03    0.00000E+00
    5.55900E+02    3.31350E+03    0.00000E+00
    5.56000E+02    3.50483E+03    0.00000E+00
    5.56100E+02    3.70081E+03    0.00000E+00
    5.56200E+02    3.89889E+03    0.00000E+00
    5.56300E+02    4.09558E+03    0.00000E+00
    5.56400E+02    4.28736E+03    0.00000E+00
    5.56500E+02    4.46900E+03    0.00000E+00
    5.56600E+02    4.63419E+03    0.00000E+00
    5.56700E+02    4.77491E+03    0.00000E+00
    5.56800E+02    4.88266E+03    0.00000E+00
    5.56900E+02    4.94460E+03    0.00000E+00
    5.57000E+02    4.93513E+03    0.00000E+00
    5.57100E+02    4.86232E+03    0.00000E+00
    5.57200E+02    4.74751E+03    0.00000E+00
    5.57300E+02    4.60225E+03    0.00000E+00
    5.57400E+02    4.43459E+03    0.00000E+00
    5.57500E+02    4.25188E+03    0.00000E+00
    5.57600E+02    4.06042E+03    0.00000E+00
    5.57700E+02    3.86476E+03    0.00000E+00
    5.57800E+02    3.66841E+03    0.00000E+00
    5.57900E+02    3.47490E+03    0.00000E+00
    5.58000E+02    3.28612E+03    0.00000E+00
    5.58100E+02    3.10377E+03    0.00000E+00
    5.58200E+02    2.92904E+03    0.00000E+00
    5.58300E+02    2.76260E+03    0.00000E+00
    5.58400E+02    2.60485E+03    0.00000E+00
    5.58500E+02    2.45588E+03    0.00000E+00
    5.58600E+02    2.31573E+03    0.00000E+00
    5.58700E+02    2.18416E+03    0.00000E+00
    5.58800E+02    2.06085E+03    0.00000E+00
    5.58900E+02    1.94552E+03    0.00000E+00
    5.59000E+02    1.83772E+03    0.00000E+00
    5.59100E+02    1.73705E+03    0.00000E+00
    5.59200E+02    1.64307E+03    0.00000E+00
    5.59300E+02    1.55536E+03    0.00000E+00
    5.59400E+02    1.47349E+03    0.00000E+00
    5.59500E+02    1.39710E+03    0.00000E+00
    5.59600E+02    1.32576E+03    0.00000E+00
    5.59700E+02    1.25916E+03    0.00000E+00
    5.59800E+02    1.19699E+03    0.00000E+00
    5.59900E+02    1.13872E+03    0.00000E+00
    5.60000E+02    1.08421E+03    0.00000E+00
    5.60100E+02    1.03320E+03    0.00000E+00
    5.60200E+02    9.85417E+02    0.00000E+00
    5.60300E+02    9.40610E+02    0.00000E+00
    5.60400E+02    8.98571E+02    0.00000E+00
    5.60500E+02    8.59086E+02    0.00000E+00
    5.60600E+02    8.21981E+02    0.00000E+00
    5.60700E+02    7.87082E+02    0.00000E+00
    5.60800E+02    7.54249E+02    0.00000E+00
    5.60900E+02    7.23305E+02    7.45769E-100
    5.61000E+02    6.94112E+02    3.55754E-100
    5.61100E+02    6.66563E+02    3.27499E-100
    5.61200E+02    6.40555E+02    6.46250E-100
    5.61300E+02    6.15982E+02    3.03618E-100
    5.61400E+02    5.92704E+02    3.90647E-100
    5.61500E+02    5.70687E+02    1.42518E-100
    5.61600E+02    5.49824E+02    1.63873E-100
    5.61700E+02    5.30047E+02    6.36309E-100
    5.61800E+02    5.11284E+02    8.95923E-100
    5.61900E+02    4.93466E+02    4.90062E-100
    5.62000E+02    4.76524E+02    1.11789E-100
    5.62100E+02    4.60421E+02    1.10026E-100
    5.62200E+02    4.45089E+02    5.01533E-100
    5.62300E+02    4.30492E+02    1.09591E-100
    5.62400E+02    4.16595E+02    1.18909E-100
    5.62500E+02    4.03328E+02    6.87103E-100
    5.62600E+02    3.90691E+02    2.11415E-100
    5.62700E+02    3.78615E+02    3.71339E-100
    5.62800E+02    3.67064E+02    3.85662E-100
    5.62900E+02    3.56036E+02    2.37545E-100
    5.63000E+02    3.45506E+02    8.88534E-100
    5.63100E+02    3.35414E+02    2.14521E-100
    5.63200E+02    3.25749E+02    3.38101E-100
    5.63300E+02    3.16495E+02    3.53281E-100
    5.63400E+02    3.07628E+02    2.50612E-100
    5.63500E+02    2.99116E+02    1.24655E-100
    5.63600E+02    2.90943E+02    4.41551E-100
    5.63700E+02    2.83101E+02    1.12435E-100
    5.63800E+02    2.75570E+02    2.09539E-100
    5.63900E+02    2.68331E+02    2.91990E-100
    5.64000E+02    2.61375E+02    3.06355E-100
    5.64100E+02    2.54682E+02    2.47205E-100
    5.64200E+02    2.48241E+02    1.55017E-100
    5.64300E+02    2.42038E+02    7.65944E-100
    5.64400E+02    2.36066E+02    3.00357E-100
    5.64500E+02    2.30311E+02    9.48848E-100
    5.64600E+02    2.24763E+02    2.43670E-98
    5.64700E+02    2.19411E+02    5.14302E-96
    5.64800E+02    2.14248E+02    8.98418E-94
    5.64900E+02    2.09267E+02    1.30798E-91
    5.65000E+02    2.04454E+02    1.60967E-89
    5.65100E+02    1.99810E+02    1.67413E-87
    5.65200E+02    1.95320E+02    1.49214E-85
    5.65300E+02    1.90980E+02    1.14349E-83
    5.65400E+02    1.86786E+02    7.58354E-82
    5.65500E+02    1.82730E+02    4.38101E-80
    5.65600E+02    1.78809E+02    2.20966E-78
    5.65700E+02    1.75083E+02    9.16972E-77
    5.65800E+02    1.71331E+02    3.90882E-75
    5.65900E+02    1.67763E+02    1.38571E-73
    5.66000E+02    1.64319E+02    4.33767E-72
    5.66100E+02    1.60998E+02    1.20061E-70
    5.66200E+02    1.57845E+02    2.81011E-69
    5.66300E+02    1.55355E+02    3.38960E-68
    5.66400E+02    1.51627E+02    1.40948E-66
    5.66500E+02    1.48596E+02    2.92093E-65
    5.66600E+02    1.45716E+02    5.20321E-64
    5.66700E+02    1.43033E+02    7.61547E-63
    5.66800E+02    1.40259E+02    1.21977E-61
    5.66900E+02    1.37599E+02    1.74367E-60
    5.67000E+02    1.34976E+02    2.40139E-59
    5.67100E+02    1.32464E+02    2.96145E-58
    5.67200E+02    1.30030E+02    3.37768E-57
    5.67300E+02    1.27666E+02    3.59106E-56
    5.67400E+02    1.25371E+02    3.56457E-55
    5.67500E+02    1.23137E+02    3.32921E-54
    5.67600E+02    1.20963E+02    2.92617E-53
    5.67700E+02    1.18850E+02    2.42112E-52
    5.67800E+02    1.16797E+02    1.88679E-51
    5.67900E+02    1.14786E+02    1.41007E-50
    5.68000E+02    1.12833E+02    9.94094E-50
    5.68100E+02    1.10930E+02    6.66430E-49
    5.68200E+02    1.09077E+02    4.25223E-48
    5.68300E+02    1.07269E+02    2.59177E-47
    5.68400E+02    1.05507E+02    1.50919E-46
    5.68500E+02    1.03791E+02    8.39574E-46
    5.68600E+02    1.02114E+02    4.49351E-45
    5.68700E+02    1.00482E+02    2.29761E-44
    5.68800E+02    9.88855E+01    1.13388E-43
    5.68900E+02    9.73308E+01    5.36750E-43
    5.69000E+02    9.58115E+01    2.45249E-42
    5.69100E+02    9.43309E+01    1.07803E-41
    5.69200E+02    9.28816E+01    4.59212E-41
    5.69300E+02    9.14685E+01    1.88679E-40
    5.69400E+02    9.00896E+01    7.49206E-40
    5.69500E+02    8.87387E+01    2.89239E-39
    5.69600E+02    8.74213E+01    1.08001E-38
    5.69700E+02    8.61355E+01    3.90669E-38
    5.69800E+02    8.48814E+01    1.36917E-37
    5.69900E+02    8.36632E+01    4.62970E-37
    5.70000E+02    8.25026E+01    1.47768E-36
    5.70100E+02    8.16719E+01    3.39117E-36
    5.70200E+02    8.01691E+01    1.52403E-35
    5.70300E+02    7.90026E+01    4.89331E-35
    5.70400E+02    7.78890E+01    1.49023E-34
    5.70500E+02    7.68086E+01    4.39002E-34
    5.70600E+02    7.57540E+01    1.26022E-33
    5.70700E+02    7.47265E+01    3.52124E-33
    5.70800E+02    7.37388E+01    9.45453E-33
    5.70900E+02    7.28284E+01    2.34980E-32
    5.71000E+02    7.26304E+01    2.86425E-32
    5.71100E+02    7.09029E+01    1.61157E-31
    5.71200E+02    6.98882E+01    4.44579E-31
    5.71300E+02    6.89491E+01    1.13706E-30
    5.71400E+02    6.80449E+01    2.80858E-30
    5.71500E+02    6.71599E+01    6.80464E-30
    5.71600E+02    6.62985E+01    1.61037E-29
    5.71700E+02    6.54524E+01    3.75310E-29
    5.71800E+02    6.46246E+01    8.58823E-29
    5.71900E+02    6.38113E+01    1.93692E-28
    5.72000E+02    6.30159E+01    4.29095E-28
    5.72100E+02    6.22383E+01    9.33837E-28
    5.72200E+02    6.14714E+01    2.01047E-27
    5.72300E+02    6.07225E+01    4.25176E-27
    5.72400E+02    5.99880E+01    8.86209E-27
    5.72500E+02    5.92685E+01    1.81980E-26
    5.72600E+02    5.85614E+01    3.69078E-26
    5.72700E+02    5.78766E+01    7.31975E-26
    5.72800E+02    5.72209E+01    1.41017E-25
    5.72900E+02    5.66348E+01    2.53407E-25
    5.73000E+02    5.58746E+01    5.41956E-25
    5.73100E+02    5.52124E+01    1.05094E-24
    5.73200E+02    5.45743E+01    1.98925E-24
    5.73300E+02    5.39511E+01    3.70979E-24
    5.73400E+02    5.33427E+01    6.81644E-24
    5.73500E+02    5.27578E+01    1.22344E-23
    5.73600E+02    5.23462E+01    1.84640E-23
    5.73700E+02    5.15862E+01    3.94833E-23
    5.73800E+02    5.09958E+01    7.12520E-23
    5.73900E+02    5.04297E+01    1.25507E-22
    5.74000E+02    4.98776E+01    2.17978E-22
    5.74100E+02    4.93341E+01    3.75386E-22
    5.74200E+02    4.88019E+01    6.39143E-22
    5.74300E+02    4.82782E+01    1.07902E-21
    5.74400E+02    4.77686E+01    1.79617E-21
    5.74500E+02    4.72879E+01    2.90476E-21
    5.74600E+02    4.67801E+01    4.82684E-21
    5.74700E+02    4.62716E+01    8.02641E-21
    5.74800E+02    4.57839E+01    1.30704E-20
    5.74900E+02    4.53095E+01    2.10059E-20
    5.75000E+02    4.48430E+01    3.34904E-20
    5.75100E+02    4.43840E+01    5.30012E-20
    5.75200E+02    4.39321E+01    8.32796E-20
    5.75300E+02    4.34874E+01    1.29917E-19
    5.75400E+02    4.30499E+01    2.01227E-19
    5.75500E+02    4.26194E+01    3.09478E-19
    5.75600E+02    4.21961E+01    4.72569E-19
    5.75700E+02    4.17801E+01    7.16368E-19
    5.75800E+02    4.13709E+01    1.07857E-18
    5.75900E+02    4.09657E+01    1.61740E-18
    5.76000E+02    4.05680E+01    2.40729E-18
    5.76100E+02    4.01783E+01    3.55462E-18
    5.76200E+02    3.97975E+01    5.20200E-18
    5.76300E+02    3.94286E+01    7.52259E-18
    5.76400E+02    3.90808E+01    1.06517E-17
    5.76500E+02    3.88911E+01    1.28775E-17
    5.76600E+02    3.83685E+01    2.17166E-17
    5.76700E+02    3.79671E+01    3.24410E-17
    5.76800E+02    3.76065E+01    4.65261E-17
    5.76900E+02    3.72496E+01    6.64792E-17
    5.77000E+02    3.69072E+01    9.36236E-17
    5.77100E+02    3.65661E+01    1.31685E-16
    5.77200E+02    3.62326E+01    1.83807E-16
    5.77300E+02    3.59063E+01    2.54742E-16
    5.77400E+02    3.55813E+01    3.52581E-16
    5.77500E+02    3.52624E+01    4.85007E-16
    5.77600E+02    3.49482E+01    6.64028E-16
    5.77700E+02    3.46387E+01    9.04894E-16
    5.77800E+02    3.43341E+01    1.22707E-15
    5.77900E+02    3.40385E+01    1.64915E-15
    5.78000E+02    3.37366E+01    2.23038E-15
    5.78100E+02    3.34434E+01    2.99025E-15
    5.78200E+02    3.31548E+01    3.99059E-15
    5.78300E+02    3.28702E+01    5.30453E-15
    5.78400E+02    3.25895E+01    7.02332E-15
    5.78500E+02    3.23128E+01    9.26267E-15
    5.78600E+02    3.20409E+01    1.21563E-14
    5.78700E+02    3.17707E+01    1.59273E-14
    5.78800E+02    3.15047E+01    2.07809E-14
    5.78900E+02    3.12425E+01    2.70114E-14
    5.79000E+02    3.09839E+01    3.49836E-14
    5.79100E+02    3.07288E+01    4.51492E-14
    5.79200E+02    3.04769E+01    5.80821E-14
    5.79300E+02    3.02285E+01    7.44604E-14
    5.79400E+02    2.99833E+01    9.51549E-14
    5.79500E+02    2.97412E+01    1.21217E-13
    5.79600E+02    2.95023E+01    1.53926E-13
    5.79700E+02    2.92666E+01    1.94847E-13
    5.79800E+02    2.90337E+01    2.45945E-13
    5.79900E+02    2.88041E+01    3.09420E-13
    5.80000E+02    2.85792E+01    3.87464E-13
    5.80100E+02    2.83534E+01    4.85617E-13
    5.80200E+02    2.81327E+01    6.05503E-13
    5.80300E+02    2.79143E+01    7.53303E-13
    5.80400E+02    2.76993E+01    9.34019E-13
    5.80500E+02    2.74860E+01    1.15609E-12
    5.80600E+02    2.72759E+01    1.42638E-12
    5.80700E+02    2.70684E+01    1.75533E-12
    5.80800E+02    2.68634E+01    2.15469E-12
    5.80900E+02    2.66613E+01    2.63714E-12
    5.81000E+02    2.64621E+01    3.21838E-12
    5.81100E+02    2.62649E+01    3.92024E-12
    5.81200E+02    2.60703E+01    4.76240E-12
    5.81300E+02    2.58809E+01    5.75538E-12
    5.81400E+02    2.56896E+01    6.96885E-12
    5.81500E+02    2.55028E+01    8.40001E-12
    5.81600E+02    2.53188E+01    1.00973E-11
    5.81700E+02    2.51389E+01    1.20872E-11
    5.81800E+02    2.49646E+01    1.43878E-11
    5.81900E+02    2.47973E+01    1.70090E-11
    5.82000E+02    2.46521E+01    1.96663E-11
    5.82100E+02    2.46222E+01    2.02638E-11
    5.82200E+02    2.44188E+01    2.48338E-11
    5.82300E+02    2.41841E+01    3.14021E-11
    5.82400E+02    2.39437E+01    3.99390E-11
    5.82500E+02    2.37564E+01    4.81635E-11
    5.82600E+02    2.35827E+01    5.73016E-11
    5.82700E+02    2.34146E+01    6.77875E-11
    5.82800E+02    2.32502E+01    7.99067E-11
    5.82900E+02    2.30891E+01    9.38736E-11
    5.83000E+02    2.29308E+01    1.09974E-10
    5.83100E+02    2.27749E+01    1.28526E-10
    5.83200E+02    2.26235E+01    1.49540E-10
    5.83300E+02    2.24790E+01    1.72777E-10
    5.83400E+02    2.23617E+01    1.94286E-10
    5.83500E+02    2.22903E+01    2.08655E-10
    5.83600E+02    2.20400E+01    2.68014E-10
    5.83700E+02    2.18774E+01    3.15343E-10
    5.83800E+02    2.17277E+01    3.66258E-10
    5.83900E+02    2.15903E+01    4.20217E-10
    5.84000E+02    2.14394E+01    4.88651E-10
    5.84100E+02    2.12976E+01    5.63065E-10
    5.84200E+02    2.11584E+01    6.47203E-10
    5.84300E+02    2.10210E+01    7.42497E-10
    5.84400E+02    2.08853E+01    8.50410E-10
    5.84500E+02    2.07512E+01    9.72470E-10
    5.84600E+02    2.06195E+01    1.10939E-09
    5.84700E+02    2.04874E+01    1.26599E-09
    5.84800E+02    2.03572E+01    1.44212E-09
    5.84900E+02    2.02286E+01    1.63992E-09
    5.85000E+02    2.01016E+01    1.86210E-09
    5.85100E+02    1.99760E+01    2.11125E-09
    5.85200E+02    1.98515E+01    2.39110E-09
    5.85300E+02    1.97289E+01    2.70303E-09
    5.85400E+02    1.96070E+01    3.05337E-09
    5.85500E+02    1.94864E+01    3.44485E-09
    5.85600E+02    1.93673E+01    3.88048E-09
    5.85700E+02    1.92498E+01    4.36435E-09
    5.85800E+02    1.91329E+01    4.90559E-09
    5.85900E+02    1.90170E+01    5.50848E-09
    5.86000E+02    1.89028E+01    6.17483E-09
    5.86100E+02    1.87896E+01    6.91470E-09
    5.86200E+02    1.86773E+01    7.73652E-09
    5.86300E+02    1.85665E+01    8.64356E-09
    5.86400E+02    1.84569E+01    9.64469E-09
    5.86500E+02    1.83483E+01    1.07509E-08
    5.86600E+02    1.82407E+01    1.19717E-08
    5.86700E+02    1.81343E+01    1.33161E-08
    5.86800E+02    1.80299E+01    1.47808E-08
    5.86900E+02    1.79243E+01    1.64276E-08
    5.87000E+02    1.78215E+01    1.82061E-08
    5.87100E+02    1.77184E+01    2.01827E-08
    5.87200E+02    1.76170E+01    2.23373E-08
    5.87300E+02    1.75165E+01    2.47003E-08
    5.87400E+02    1.74172E+01    2.72775E-08
    5.87500E+02    1.73187E+01    3.01008E-08
    5.87600E+02    1.72213E+01    3.31804E-08
    5.87700E+02    1.71251E+01    3.65329E-08
    5.87800E+02    1.70296E+01    4.01927E-08
    5.87900E+02    1.69348E+01    4.41904E-08
    5.88000E+02    1.68409E+01    4.85386E-08
    5.88100E+02    1.67485E+01    5.32400E-08
    5.88200E+02    1.66563E+01    5.83790E-08
    5.88300E+02    1.65654E+01    6.39348E-08
    5.88400E+02    1.64758E+01    6.99299E-08
    5.88500E+02    1.63861E+01    7.64874E-08
    5.88600E+02    1.62975E+01    8.35759E-08
    5.88700E+02    1.62101E+01    9.12135E-08
    5.88800E+02    1.61235E+01    9.94625E-08
    5.88900E+02    1.60382E+01    1.08314E-07
    5.89000E+02    1.59545E+01    1.17771E-07
    5.89100E+02    1.58878E+01    1.25900E-07
    5.89200E+02    1.57874E+01    1.39189E-07
    5.89300E+02    1.57025E+01    1.51530E-07
    5.89400E+02    1.56201E+01    1.64540E-07
    5.89500E+02    1.55386E+01    1.78514E-07
    5.89600E+02    1.54581E+01    1.93486E-07
    5.89700E+02    1.53786E+01    2.09494E-07
    5.89800E+02    1.52997E+01    2.26684E-07
    5.89900E+02    1.52223E+01    2.44923E-07
    5.90000E+02    1.51458E+01    2.64405E-07
    5.90100E+02    1.50712E+01    2.84880E-07
    5.90200E+02    1.50015E+01    3.05430E-07
    5.90300E+02    1.49587E+01    3.18788E-07
    5.90400E+02    1.48682E+01    3.48988E-07
    5.90500E+02    1.47755E+01    3.82886E-07
    5.90600E+02    1.46984E+01    4.13577E-07
    5.90700E+02    1.46253E+01    4.44940E-07
    5.90800E+02    1.45555E+01    4.77134E-07
    5.90900E+02    1.44918E+01    5.08476E-07
    5.91000E+02    1.44869E+01    5.11008E-07
    5.91100E+02    1.43610E+01    5.79529E-07
    5.91200E+02    1.43156E+01    6.06479E-07
    5.91300E+02    1.42422E+01    6.52679E-07
    5.91400E+02    1.41418E+01    7.21607E-07
    5.91500E+02    1.40667E+01    7.77873E-07
    5.91600E+02    1.39969E+01    8.34128E-07
    5.91700E+02    1.39288E+01    8.92911E-07
    5.91800E+02    1.38622E+01    9.54427E-07
    5.91900E+02    1.37967E+01    1.01896E-06
    5.92000E+02    1.37321E+01    1.08701E-06
    5.92100E+02    1.36686E+01    1.15825E-06
    5.92200E+02    1.36063E+01    1.23270E-06
    5.92300E+02    1.35463E+01    1.30896E-06
    5.92400E+02    1.34911E+01    1.38317E-06
    5.92500E+02    1.34468E+01    1.44588E-06
    5.92600E+02    1.34927E+01    1.38098E-06
    5.92700E+02    1.33607E+01    1.57587E-06
    5.92800E+02    1.32532E+01    1.75474E-06
    5.92900E+02    1.31816E+01    1.88495E-06
    5.93000E+02    1.31171E+01    2.01048E-06
