#	Freq	Err	Trans
    5.49900E+02    1.45080E+02    9.83389E-64
    5.50000E+02    1.48932E+02    2.08842E-65
    5.50100E+02    1.52951E+02    3.75013E-67
    5.50200E+02    1.57147E+02    5.64964E-69
    5.50300E+02    1.61525E+02    7.08594E-71
    5.50400E+02    1.66099E+02    7.31109E-73
    5.50500E+02    1.70878E+02    6.14509E-75
    5.50600E+02    1.75871E+02    4.17162E-77
    5.50700E+02    1.81093E+02    2.25161E-79
    5.50800E+02    1.86563E+02    9.47417E-82
    5.50900E+02    1.92324E+02    2.98271E-84
    5.51000E+02    1.98584E+02    5.70118E-87
    5.51100E+02    2.04527E+02    1.49585E-89
    5.51200E+02    2.11024E+02    2.25639E-92
    5.51300E+02    2.17897E+02    2.33620E-95
    5.51400E+02    2.25123E+02    1.69999E-98
    5.51500E+02    2.32631E+02    9.32079E-100
    5.51600E+02    2.40521E+02    3.49133E-100
    5.51700E+02    2.48812E+02    8.75805E-100
    5.51800E+02    2.57544E+02    1.41267E-100
    5.51900E+02    2.66713E+02    1.47248E-100
    5.52000E+02    2.76355E+02    9.56348E-100
    5.52100E+02    2.86505E+02    3.73712E-100
    5.52200E+02    2.97185E+02    8.59064E-100
    5.52300E+02    3.08440E+02    1.11200E-100
    5.52400E+02    3.20330E+02    7.62841E-100
    5.52500E+02    3.32877E+02    2.71158E-100
    5.52600E+02    3.46143E+02    4.69810E-100
    5.52700E+02    3.60169E+02    3.80655E-100
    5.52800E+02    3.75036E+02    1.33063E-100
    5.52900E+02    3.90780E+02    1.93385E-100
    5.53000E+02    4.07487E+02    1.07294E-100
    5.53100E+02    4.25216E+02    2.14243E-100
    5.53200E+02    4.44048E+02    1.42100E-100
    5.53300E+02    4.64082E+02    2.82955E-100
    5.53400E+02    4.85398E+02    1.56489E-100
    5.53500E+02    5.08094E+02    2.17534E-100
    5.53600E+02    5.32293E+02    6.73085E-100
    5.53700E+02    5.58075E+02    4.27744E-100
    5.53800E+02    5.85619E+02    4.66635E-100
    5.53900E+02    6.15045E+02    7.75163E-100
    5.54000E+02    6.46493E+02    1.70481E-100
    5.54100E+02    6.80143E+02    4.14667E-100
    5.54200E+02    7.16135E+02    9.69801E-100
    5.54300E+02    7.54708E+02    0.00000E+00
    5.54400E+02    7.96023E+02    0.00000E+00
    5.54500E+02    8.40299E+02    0.00000E+00
    5.54600E+02    8.87757E+02    0.00000E+00
    5.54700E+02    9.38656E+02    0.00000E+00
    5.54800E+02    9.93216E+02    0.00000E+00
    5.54900E+02    1.05170E+03    0.00000E+00
    5.55000E+02    1.11434E+03    0.00000E+00
    5.55100E+02    1.18138E+03    0.00000E+00
    5.55200E+02    1.25307E+03    0.00000E+00
    5.55300E+02    1.32959E+03    0.00000E+00
    5.55400E+02    1.41112E+03    0.00000E+00
    5.55500E+02    1.49774E+03    0.00000E+00
    5.55600E+02    1.58947E+03    0.00000E+00
    5.55700E+02    1.68620E+03    0.00000E+00
    5.55800E+02    1.78766E+03    0.00000E+00
    5.55900E+02    1.89343E+03    0.00000E+00
    5.56000E+02    2.00276E+03    0.00000E+00
    5.56100E+02    2.11475E+03    0.00000E+00
    5.56200E+02    2.22794E+03    0.00000E+00
    5.56300E+02    2.34033E+03    0.00000E+00
    5.56400E+02    2.44992E+03    0.00000E+00
    5.56500E+02    2.55372E+03    0.00000E+00
    5.56600E+02    2.64811E+03    0.00000E+00
    5.56700E+02    2.72854E+03    0.00000E+00
    5.56800E+02    2.79010E+03    0.00000E+00
    5.56900E+02    2.82549E+03    0.00000E+00
    5.57000E+02    2.82008E+03    0.00000E+00
    5.57100E+02    2.77847E+03    0.00000E+00
    5.57200E+02    2.71287E+03    0.00000E+00
    5.57300E+02    2.62986E+03    0.00000E+00
    5.57400E+02    2.53405E+03    0.00000E+00
    5.57500E+02    2.42965E+03    0.00000E+00
    5.57600E+02    2.32024E+03    0.00000E+00
    5.57700E+02    2.20844E+03    0.00000E+00
    5.57800E+02    2.09624E+03    0.00000E+00
    5.57900E+02    1.98567E+03    0.00000E+00
    5.58000E+02    1.87780E+03    0.00000E+00
    5.58100E+02    1.77359E+03    0.00000E+00
    5.58200E+02    1.67374E+03    0.00000E+00
    5.58300E+02    1.57863E+03    0.00000E+00
    5.58400E+02    1.48849E+03    0.00000E+00
    5.58500E+02    1.40336E+03    0.00000E+00
    5.58600E+02    1.32328E+03    0.00000E+00
    5.58700E+02    1.24810E+03    0.00000E+00
    5.58800E+02    1.17763E+03    0.00000E+00
    5.58900E+02    1.11173E+03    0.00000E+00
    5.59000E+02    1.05013E+03    0.00000E+00
    5.59100E+02    9.92605E+02    0.00000E+00
    5.59200E+02    9.38903E+02    0.00000E+00
    5.59300E+02    8.88781E+02    0.00000E+00
    5.59400E+02    8.42003E+02    0.00000E+00
    5.59500E+02    7.98351E+02    0.00000E+00
    5.59600E+02    7.57585E+02    0.00000E+00
    5.59700E+02    7.19538E+02    3.22516E-100
    5.59800E+02    6.84049E+02    8.34275E-100
    5.59900E+02    6.50733E+02    2.45647E-100
    5.60000E+02    6.19562E+02    8.46344E-100
    5.60100E+02    5.90408E+02    3.88289E-100
    5.60200E+02    5.63101E+02    2.80875E-100
    5.60300E+02    5.37496E+02    3.70223E-100
    5.60400E+02    5.13473E+02    1.00371E-100
    5.60500E+02    4.90910E+02    6.31631E-100
    5.60600E+02    4.69707E+02    1.02087E-100
    5.60700E+02    4.49764E+02    4.67631E-100
    5.60800E+02    4.31002E+02    6.58050E-100
    5.60900E+02    4.13320E+02    3.14428E-100
    5.61000E+02    3.96638E+02    5.52641E-100
    5.61100E+02    3.80896E+02    3.79380E-100
    5.61200E+02    3.66034E+02    1.08016E-100
    5.61300E+02    3.51992E+02    1.35438E-100
    5.61400E+02    3.38691E+02    8.10165E-100
    5.61500E+02    3.26109E+02    2.35815E-100
    5.61600E+02    3.14187E+02    3.54901E-100
    5.61700E+02    3.02886E+02    2.87167E-100
    5.61800E+02    2.92165E+02    1.30176E-100
    5.61900E+02    2.81983E+02    3.43720E-100
    5.62000E+02    2.72302E+02    5.50708E-100
    5.62100E+02    2.63100E+02    5.45685E-100
    5.62200E+02    2.54339E+02    3.48337E-100
    5.62300E+02    2.45998E+02    1.46065E-100
    5.62400E+02    2.38057E+02    4.10534E-100
    5.62500E+02    2.30475E+02    8.04999E-100
    5.62600E+02    2.23254E+02    1.10107E-97
    5.62700E+02    2.16354E+02    1.09295E-94
    5.62800E+02    2.09754E+02    8.03357E-92
    5.62900E+02    2.03452E+02    4.38578E-89
    5.63000E+02    1.97435E+02    1.79926E-86
    5.63100E+02    1.91668E+02    5.74701E-84
    5.63200E+02    1.86145E+02    1.43898E-81
    5.63300E+02    1.80858E+02    2.84701E-79
    5.63400E+02    1.75794E+02    4.50350E-77
    5.63500E+02    1.70929E+02    5.83840E-75
    5.63600E+02    1.66257E+02    6.24380E-73
    5.63700E+02    1.61775E+02    5.51882E-71
    5.63800E+02    1.57472E+02    4.08008E-69
    5.63900E+02    1.53335E+02    2.55452E-67
    5.64000E+02    1.49361E+02    1.35981E-65
    5.64100E+02    1.45536E+02    6.23006E-64
    5.64200E+02    1.41856E+02    2.47115E-62
    5.64300E+02    1.38311E+02    8.55278E-61
    5.64400E+02    1.34899E+02    2.59381E-59
    5.64500E+02    1.31611E+02    6.95478E-58
    5.64600E+02    1.28440E+02    1.65621E-56
    5.64700E+02    1.25382E+02    3.52570E-55
    5.64800E+02    1.22432E+02    6.73600E-54
    5.64900E+02    1.19586E+02    1.15958E-52
    5.65000E+02    1.16837E+02    1.81337E-51
    5.65100E+02    1.14183E+02    2.57556E-50
    5.65200E+02    1.11618E+02    3.34877E-49
    5.65300E+02    1.09139E+02    3.99318E-48
    5.65400E+02    1.06744E+02    4.38208E-47
    5.65500E+02    1.04428E+02    4.44136E-46
    5.65600E+02    1.02192E+02    4.15442E-45
    5.65700E+02    1.00096E+02    3.37979E-44
    5.65800E+02    9.79233E+01    2.96778E-43
    5.65900E+02    9.58841E+01    2.28067E-42
    5.66000E+02    9.39213E+01    1.62370E-41
    5.66100E+02    9.20365E+01    1.06919E-40
    5.66200E+02    9.02759E+01    6.21832E-40
    5.66300E+02    8.91362E+01    1.94375E-39
    5.66400E+02    8.67184E+01    2.18113E-38
    5.66500E+02    8.49580E+01    1.26830E-37
    5.66600E+02    8.33129E+01    6.57180E-37
    5.66700E+02    8.18267E+01    2.90477E-36
    5.66800E+02    8.02174E+01    1.45223E-35
    5.66900E+02    7.86873E+01    6.70729E-35
    5.67000E+02    7.71630E+01    3.08001E-34
    5.67100E+02    7.57191E+01    1.30507E-33
    5.67200E+02    7.43233E+01    5.27010E-33
    5.67300E+02    7.29692E+01    2.04114E-32
    5.67400E+02    7.16553E+01    7.59434E-32
    5.67500E+02    7.03768E+01    2.72730E-31
    5.67600E+02    6.91335E+01    9.45548E-31
    5.67700E+02    6.79252E+01    3.16565E-30
    5.67800E+02    6.67542E+01    1.02096E-29
    5.67900E+02    6.56011E+01    3.23438E-29
    5.68000E+02    6.44839E+01    9.88583E-29
    5.68100E+02    6.33959E+01    2.93427E-28
    5.68200E+02    6.23364E+01    8.46534E-28
    5.68300E+02    6.13031E+01    2.37894E-27
    5.68400E+02    6.02961E+01    6.51265E-27
    5.68500E+02    5.93151E+01    1.73687E-26
    5.68600E+02    5.83564E+01    4.53064E-26
    5.68700E+02    5.74237E+01    1.15129E-25
    5.68800E+02    5.65116E+01    2.86633E-25
    5.68900E+02    5.56231E+01    6.96951E-25
    5.69000E+02    5.47549E+01    1.66047E-24
    5.69100E+02    5.39090E+01    3.86908E-24
    5.69200E+02    5.30810E+01    8.85549E-24
    5.69300E+02    5.22741E+01    1.98454E-23
    5.69400E+02    5.14863E+01    4.36304E-23
    5.69500E+02    5.07146E+01    9.43869E-23
    5.69600E+02    4.99628E+01    2.00179E-22
    5.69700E+02    4.92293E+01    4.16867E-22
    5.69800E+02    4.85153E+01    8.51245E-22
    5.69900E+02    4.78252E+01    1.69736E-21
    5.70000E+02    4.71808E+01    3.23323E-21
    5.70100E+02    4.68543E+01    4.48180E-21
    5.70200E+02    4.58466E+01    1.22762E-20
    5.70300E+02    4.51633E+01    2.43133E-20
    5.70400E+02    4.45223E+01    4.61562E-20
    5.70500E+02    4.39040E+01    8.56521E-20
    5.70600E+02    4.33026E+01    1.56288E-19
    5.70700E+02    4.27192E+01    2.80084E-19
    5.70800E+02    4.21651E+01    4.87435E-19
    5.70900E+02    4.16793E+01    7.92311E-19
    5.71000E+02    4.18985E+01    6.36388E-19
    5.71100E+02    4.05776E+01    2.38433E-18
    5.71200E+02    3.99635E+01    4.40638E-18
    5.71300E+02    3.94160E+01    7.61804E-18
    5.71400E+02    3.88944E+01    1.28347E-17
    5.71500E+02    3.83861E+01    2.13376E-17
    5.71600E+02    3.78922E+01    3.49638E-17
    5.71700E+02    3.74077E+01    5.67599E-17
    5.71800E+02    3.69340E+01    9.11533E-17
    5.71900E+02    3.64688E+01    1.45146E-16
    5.72000E+02    3.60140E+01    2.28737E-16
    5.72100E+02    3.55694E+01    3.56775E-16
    5.72200E+02    3.51312E+01    5.52991E-16
    5.72300E+02    3.47033E+01    8.48287E-16
    5.72400E+02    3.42839E+01    1.29024E-15
    5.72500E+02    3.38735E+01    1.94508E-15
    5.72600E+02    3.34709E+01    2.90910E-15
    5.72700E+02    3.30833E+01    4.28665E-15
    5.72800E+02    3.27216E+01    6.15429E-15
    5.72900E+02    3.24221E+01    8.30369E-15
    5.73000E+02    3.19439E+01    1.33944E-14
    5.73100E+02    3.15592E+01    1.96786E-14
    5.73200E+02    3.11927E+01    2.83900E-14
    5.73300E+02    3.08366E+01    4.05360E-14
    5.73400E+02    3.04908E+01    5.72825E-14
    5.73500E+02    3.01639E+01    7.94293E-14
    5.73600E+02    3.00059E+01    9.30266E-14
    5.73700E+02    2.94949E+01    1.55072E-13
    5.73800E+02    2.91491E+01    2.19134E-13
    5.73900E+02    2.88230E+01    3.03619E-13
    5.74000E+02    2.85065E+01    4.16661E-13
    5.74100E+02    2.81955E+01    5.68665E-13
    5.74200E+02    2.78914E+01    7.70796E-13
    5.74300E+02    2.75927E+01    1.03905E-12
    5.74400E+02    2.73036E+01    1.38732E-12
    5.74500E+02    2.70405E+01    1.80497E-12
    5.74600E+02    2.67457E+01    2.42384E-12
    5.74700E+02    2.64472E+01    3.26697E-12
    5.74800E+02    2.61666E+01    4.32513E-12
    5.74900E+02    2.58947E+01    5.67669E-12
    5.75000E+02    2.56277E+01    7.41356E-12
    5.75100E+02    2.53652E+01    9.63923E-12
    5.75200E+02    2.51068E+01    1.24810E-11
    5.75300E+02    2.48526E+01    1.60928E-11
    5.75400E+02    2.46026E+01    2.06639E-11
    5.75500E+02    2.43567E+01    2.64258E-11
    5.75600E+02    2.41149E+01    3.36535E-11
    5.75700E+02    2.38774E+01    4.26749E-11
    5.75800E+02    2.36437E+01    5.39090E-11
    5.75900E+02    2.34125E+01    6.79301E-11
    5.76000E+02    2.31859E+01    8.52126E-11
    5.76100E+02    2.29641E+01    1.06366E-10
    5.76200E+02    2.27483E+01    1.31983E-10
    5.76300E+02    2.25415E+01    1.62316E-10
    5.76400E+02    2.23542E+01    1.95752E-10
    5.76500E+02    2.23234E+01    2.01866E-10
    5.76600E+02    2.19553E+01    2.91692E-10
    5.76700E+02    2.17085E+01    3.73361E-10
    5.76800E+02    2.14979E+01    4.60884E-10
    5.76900E+02    2.12910E+01    5.66810E-10
    5.77000E+02    2.10941E+01    6.90158E-10
    5.77100E+02    2.08985E+01    8.39289E-10
    5.77200E+02    2.07075E+01    1.01592E-09
    5.77300E+02    2.05206E+01    1.22466E-09
    5.77400E+02    2.03346E+01    1.47499E-09
    5.77500E+02    2.01522E+01    1.77011E-09
    5.77600E+02    1.99726E+01    2.11843E-09
    5.77700E+02    1.97957E+01    2.52838E-09
    5.77800E+02    1.96218E+01    3.00871E-09
    5.77900E+02    1.94551E+01    3.55429E-09
    5.78000E+02    1.92802E+01    4.23357E-09
    5.78100E+02    1.91124E+01    5.00704E-09
    5.78200E+02    1.89474E+01    5.90526E-09
    5.78300E+02    1.87847E+01    6.94855E-09
    5.78400E+02    1.86243E+01    8.15754E-09
    5.78500E+02    1.84662E+01    9.55506E-09
    5.78600E+02    1.83113E+01    1.11556E-08
    5.78700E+02    1.81565E+01    1.30241E-08
    5.78800E+02    1.80044E+01    1.51627E-08
    5.78900E+02    1.78545E+01    1.76148E-08
    5.79000E+02    1.77067E+01    2.04205E-08
    5.79100E+02    1.75610E+01    2.36251E-08
    5.79200E+02    1.74170E+01    2.72822E-08
    5.79300E+02    1.72751E+01    3.14429E-08
    5.79400E+02    1.71350E+01    3.61723E-08
    5.79500E+02    1.69967E+01    4.15377E-08
    5.79600E+02    1.68602E+01    4.76121E-08
    5.79700E+02    1.67255E+01    5.44760E-08
    5.79800E+02    1.65925E+01    6.22270E-08
    5.79900E+02    1.64614E+01    7.09421E-08
    5.80000E+02    1.63336E+01    8.06110E-08
    5.80100E+02    1.62039E+01    9.17733E-08
    5.80200E+02    1.60781E+01    1.04084E-07
    5.80300E+02    1.59532E+01    1.17926E-07
    5.80400E+02    1.58307E+01    1.33296E-07
    5.80500E+02    1.57085E+01    1.50613E-07
    5.80600E+02    1.55886E+01    1.69814E-07
    5.80700E+02    1.54701E+01    1.91173E-07
    5.80800E+02    1.53531E+01    2.14897E-07
    5.80900E+02    1.52379E+01    2.41147E-07
    5.81000E+02    1.51244E+01    2.70111E-07
    5.81100E+02    1.50118E+01    3.02299E-07
    5.81200E+02    1.49011E+01    3.37718E-07
    5.81300E+02    1.47943E+01    3.75776E-07
    5.81400E+02    1.46846E+01    4.19314E-07
    5.81500E+02    1.45787E+01    4.66194E-07
    5.81600E+02    1.44744E+01    5.17425E-07
    5.81700E+02    1.43732E+01    5.72517E-07
    5.81800E+02    1.42769E+01    6.30393E-07
    5.81900E+02    1.41865E+01    6.90079E-07
    5.82000E+02    1.41173E+01    7.39498E-07
    5.82100E+02    1.41626E+01    7.06745E-07
    5.82200E+02    1.40334E+01    8.04197E-07
    5.82300E+02    1.38722E+01    9.44893E-07
    5.82400E+02    1.37042E+01    1.11769E-06
    5.82500E+02    1.35888E+01    1.25448E-06
    5.82600E+02    1.34860E+01    1.39035E-06
    5.82700E+02    1.33879E+01    1.53359E-06
    5.82800E+02    1.32928E+01    1.68661E-06
    5.82900E+02    1.32002E+01    1.85025E-06
    5.83000E+02    1.31096E+01    2.02562E-06
    5.83100E+02    1.30207E+01    2.21398E-06
    5.83200E+02    1.29354E+01    2.41123E-06
    5.83300E+02    1.28564E+01    2.60931E-06
    5.83400E+02    1.28038E+01    2.75025E-06
    5.83500E+02    1.27964E+01    2.77060E-06
    5.83600E+02    1.26095E+01    3.34021E-06
    5.83700E+02    1.25095E+01    3.69146E-06
    5.83800E+02    1.24217E+01    4.03027E-06
    5.83900E+02    1.23455E+01    4.34917E-06
    5.84000E+02    1.22552E+01    4.76039E-06
    5.84100E+02    1.21733E+01    5.16633E-06
    5.84200E+02    1.20933E+01    5.59710E-06
    5.84300E+02    1.20145E+01    6.05587E-06
    5.84400E+02    1.19367E+01    6.54542E-06
    5.84500E+02    1.18600E+01    7.06752E-06
    5.84600E+02    1.17850E+01    7.61762E-06
    5.84700E+02    1.17092E+01    8.21814E-06
    5.84800E+02    1.16345E+01    8.85541E-06
    5.84900E+02    1.15609E+01    9.53140E-06
    5.85000E+02    1.14882E+01    1.02501E-05
    5.85100E+02    1.14164E+01    1.10132E-05
    5.85200E+02    1.13453E+01    1.18253E-05
    5.85300E+02    1.12752E+01    1.26836E-05
    5.85400E+02    1.12054E+01    1.35999E-05
    5.85500E+02    1.11365E+01    1.45709E-05
    5.85600E+02    1.10685E+01    1.55966E-05
    5.85700E+02    1.10014E+01    1.66781E-05
    5.85800E+02    1.09345E+01    1.78319E-05
    5.85900E+02    1.08682E+01    1.90554E-05
    5.86000E+02    1.08029E+01    2.03398E-05
    5.86100E+02    1.07383E+01    2.16983E-05
    5.86200E+02    1.06740E+01    2.31383E-05
    5.86300E+02    1.06106E+01    2.46528E-05
    5.86400E+02    1.05480E+01    2.62449E-05
    5.86500E+02    1.04860E+01    2.79246E-05
    5.86600E+02    1.04246E+01    2.96944E-05
    5.86700E+02    1.03638E+01    3.15548E-05
    5.86800E+02    1.03046E+01    3.34780E-05
    5.86900E+02    1.02437E+01    3.55795E-05
    5.87000E+02    1.01853E+01    3.77226E-05
    5.87100E+02    1.01260E+01    4.00245E-05
    5.87200E+02    1.00680E+01    4.24157E-05
    5.87300E+02    1.00105E+01    4.49240E-05
    5.87400E+02    9.95377E+00    4.75478E-05
    5.87500E+02    9.89748E+00    5.03010E-05
    5.87600E+02    9.84183E+00    5.31801E-05
    5.87700E+02    9.78685E+00    5.61853E-05
    5.87800E+02    9.73238E+00    5.93311E-05
    5.87900E+02    9.67810E+00    6.26403E-05
    5.88000E+02    9.62448E+00    6.60911E-05
    5.88100E+02    9.57167E+00    6.96749E-05
    5.88200E+02    9.51902E+00    7.34420E-05
    5.88300E+02    9.46713E+00    7.73530E-05
    5.88400E+02    9.41609E+00    8.14036E-05
    5.88500E+02    9.36473E+00    8.56937E-05
    5.88600E+02    9.31409E+00    9.01453E-05
    5.88700E+02    9.26417E+00    9.47589E-05
    5.88800E+02    9.21482E+00    9.95535E-05
    5.88900E+02    9.16635E+00    1.04497E-04
    5.89000E+02    9.11926E+00    1.09535E-04
    5.89100E+02    9.08868E+00    1.12937E-04
    5.89200E+02    9.02407E+00    1.20475E-04
    5.89300E+02    8.97469E+00    1.26573E-04
    5.89400E+02    8.92743E+00    1.32699E-04
    5.89500E+02    8.88089E+00    1.39021E-04
    5.89600E+02    8.83485E+00    1.45570E-04
    5.89700E+02    8.78958E+00    1.52311E-04
    5.89800E+02    8.74464E+00    1.59313E-04
    5.89900E+02    8.70070E+00    1.66469E-04
    5.90000E+02    8.65748E+00    1.73822E-04
    5.90100E+02    8.61590E+00    1.81202E-04
    5.90200E+02    8.57894E+00    1.88024E-04
    5.90300E+02    8.56854E+00    1.89989E-04
    5.90400E+02    8.51012E+00    2.01419E-04
    5.90500E+02    8.44922E+00    2.14067E-04
    5.90600E+02    8.40362E+00    2.24056E-04
    5.90700E+02    8.36170E+00    2.33646E-04
    5.90800E+02    8.32274E+00    2.42930E-04
    5.90900E+02    8.28984E+00    2.51054E-04
    5.91000E+02    8.31531E+00    2.44740E-04
    5.91100E+02    8.21962E+00    2.69317E-04
    5.91200E+02    8.20398E+00    2.73562E-04
    5.91300E+02    8.16010E+00    2.85835E-04
    5.91400E+02    8.08906E+00    3.06877E-04
    5.91500E+02    8.04305E+00    3.21326E-04
    5.91600E+02    8.00200E+00    3.34792E-04
    5.91700E+02    7.96250E+00    3.48281E-04
    5.91800E+02    7.92419E+00    3.61884E-04
    5.91900E+02    7.88677E+00    3.75683E-04
    5.92000E+02    7.84996E+00    3.89769E-04
    5.92100E+02    7.81403E+00    4.04026E-04
    5.92200E+02    7.77911E+00    4.18384E-04
    5.92300E+02    7.74617E+00    4.32395E-04
    5.92400E+02    7.71781E+00    4.44832E-04
    5.92500E+02    7.70009E+00    4.52785E-04
    5.92600E+02    7.77234E+00    4.21226E-04
    5.92700E+02    7.66648E+00    4.68264E-04
    5.92800E+02    7.58498E+00    5.08025E-04
    5.92900E+02    7.53894E+00    5.31962E-04
    5.93000E+02    7.50002E+00    5.53075E-04
    5.93100E+02    7.46392E+00    5.73407E-04
