#	Freq	Err	Trans
    5.49900E+02    1.81344E+02    1.75034E-79
    5.50000E+02    1.86159E+02    1.41911E-81
    5.50100E+02    1.91184E+02    9.32950E-84
    5.50200E+02    1.96428E+02    4.92501E-86
    5.50300E+02    2.01901E+02    2.06774E-88
    5.50400E+02    2.07618E+02    6.80235E-91
    5.50500E+02    2.13591E+02    1.73222E-93
    5.50600E+02    2.19831E+02    3.37877E-96
    5.50700E+02    2.26356E+02    4.95250E-99
    5.50800E+02    2.33190E+02    5.33044E-100
    5.50900E+02    2.40377E+02    4.03157E-100
    5.51000E+02    2.48129E+02    1.73280E-100
    5.51100E+02    2.55635E+02    9.52727E-100
    5.51200E+02    2.63766E+02    2.80550E-100
    5.51300E+02    2.72358E+02    5.20479E-100
    5.51400E+02    2.81379E+02    6.29291E-100
    5.51500E+02    2.90772E+02    5.23802E-100
    5.51600E+02    3.00642E+02    2.70875E-100
    5.51700E+02    3.11008E+02    8.53391E-100
    5.51800E+02    3.21924E+02    1.54988E-100
    5.51900E+02    3.33385E+02    1.63149E-100
    5.52000E+02    3.45438E+02    9.50908E-100
    5.52100E+02    3.58126E+02    2.93727E-100
    5.52200E+02    3.71477E+02    4.67457E-100
    5.52300E+02    3.85545E+02    3.62941E-100
    5.52400E+02    4.00408E+02    1.27400E-100
    5.52500E+02    4.16092E+02    1.96614E-100
    5.52600E+02    4.32674E+02    1.23588E-100
    5.52700E+02    4.50206E+02    3.00472E-100
    5.52800E+02    4.68789E+02    2.55464E-100
    5.52900E+02    4.88470E+02    7.24540E-100
    5.53000E+02    5.09354E+02    6.16901E-100
    5.53100E+02    5.31516E+02    1.46426E-100
    5.53200E+02    5.55055E+02    8.76477E-100
    5.53300E+02    5.80098E+02    1.16624E-100
    5.53400E+02    6.06742E+02    3.12799E-100
    5.53500E+02    6.35113E+02    1.49262E-100
    5.53600E+02    6.65362E+02    1.08901E-100
    5.53700E+02    6.97589E+02    1.09876E-100
    5.53800E+02    7.32019E+02    1.22499E-100
    5.53900E+02    7.68802E+02    0.00000E+00
    5.54000E+02    8.08112E+02    0.00000E+00
    5.54100E+02    8.50174E+02    0.00000E+00
    5.54200E+02    8.95164E+02    0.00000E+00
    5.54300E+02    9.43381E+02    0.00000E+00
    5.54400E+02    9.95024E+02    0.00000E+00
    5.54500E+02    1.05037E+03    0.00000E+00
    5.54600E+02    1.10969E+03    0.00000E+00
    5.54700E+02    1.17332E+03    0.00000E+00
    5.54800E+02    1.24152E+03    0.00000E+00
    5.54900E+02    1.31462E+03    0.00000E+00
    5.55000E+02    1.39292E+03    0.00000E+00
    5.55100E+02    1.47672E+03    0.00000E+00
    5.55200E+02    1.56633E+03    0.00000E+00
    5.55300E+02    1.66198E+03    0.00000E+00
    5.55400E+02    1.76389E+03    0.00000E+00
    5.55500E+02    1.87217E+03    0.00000E+00
    5.55600E+02    1.98683E+03    0.00000E+00
    5.55700E+02    2.10774E+03    0.00000E+00
    5.55800E+02    2.23458E+03    0.00000E+00
    5.55900E+02    2.36679E+03    0.00000E+00
    5.56000E+02    2.50345E+03    0.00000E+00
    5.56100E+02    2.64343E+03    0.00000E+00
    5.56200E+02    2.78492E+03    0.00000E+00
    5.56300E+02    2.92541E+03    0.00000E+00
    5.56400E+02    3.06240E+03    0.00000E+00
    5.56500E+02    3.19214E+03    0.00000E+00
    5.56600E+02    3.31014E+03    0.00000E+00
    5.56700E+02    3.41066E+03    0.00000E+00
    5.56800E+02    3.48762E+03    0.00000E+00
    5.56900E+02    3.53185E+03    0.00000E+00
    5.57000E+02    3.52509E+03    0.00000E+00
    5.57100E+02    3.47309E+03    0.00000E+00
    5.57200E+02    3.39108E+03    0.00000E+00
    5.57300E+02    3.28732E+03    0.00000E+00
    5.57400E+02    3.16756E+03    0.00000E+00
    5.57500E+02    3.03706E+03    0.00000E+00
    5.57600E+02    2.90030E+03    0.00000E+00
    5.57700E+02    2.76055E+03    0.00000E+00
    5.57800E+02    2.62029E+03    0.00000E+00
    5.57900E+02    2.48207E+03    0.00000E+00
    5.58000E+02    2.34724E+03    0.00000E+00
    5.58100E+02    2.21698E+03    0.00000E+00
    5.58200E+02    2.09217E+03    0.00000E+00
    5.58300E+02    1.97329E+03    0.00000E+00
    5.58400E+02    1.86060E+03    0.00000E+00
    5.58500E+02    1.75420E+03    0.00000E+00
    5.58600E+02    1.65409E+03    0.00000E+00
    5.58700E+02    1.56012E+03    0.00000E+00
    5.58800E+02    1.47204E+03    0.00000E+00
    5.58900E+02    1.38966E+03    0.00000E+00
    5.59000E+02    1.31265E+03    0.00000E+00
    5.59100E+02    1.24075E+03    0.00000E+00
    5.59200E+02    1.17362E+03    0.00000E+00
    5.59300E+02    1.11097E+03    0.00000E+00
    5.59400E+02    1.05250E+03    0.00000E+00
    5.59500E+02    9.97929E+02    0.00000E+00
    5.59600E+02    9.46972E+02    0.00000E+00
    5.59700E+02    8.99410E+02    0.00000E+00
    5.59800E+02    8.55025E+02    0.00000E+00
    5.59900E+02    8.13393E+02    0.00000E+00
    5.60000E+02    7.74442E+02    0.00000E+00
    5.60100E+02    7.38002E+02    3.08791E-100
    5.60200E+02    7.03869E+02    2.05789E-100
    5.60300E+02    6.71864E+02    1.63342E-100
    5.60400E+02    6.41835E+02    1.79646E-100
    5.60500E+02    6.13632E+02    3.18365E-100
    5.60600E+02    5.87128E+02    1.03137E-100
    5.60700E+02    5.62200E+02    6.91076E-100
    5.60800E+02    5.38747E+02    1.05910E-100
    5.60900E+02    5.16645E+02    4.20713E-100
    5.61000E+02    4.95792E+02    4.78758E-100
    5.61100E+02    4.76115E+02    1.68225E-100
    5.61200E+02    4.57538E+02    1.96742E-100
    5.61300E+02    4.39986E+02    8.25484E-100
    5.61400E+02    4.23358E+02    1.37325E-100
    5.61500E+02    4.07632E+02    9.28491E-100
    5.61600E+02    3.92730E+02    2.75221E-100
    5.61700E+02    3.78603E+02    3.75625E-100
    5.61800E+02    3.65201E+02    2.48439E-100
    5.61900E+02    3.52474E+02    8.36237E-100
    5.62000E+02    3.40372E+02    1.50727E-100
    5.62100E+02    3.28871E+02    1.49018E-100
    5.62200E+02    3.17919E+02    8.50246E-100
    5.62300E+02    3.07492E+02    2.86903E-100
    5.62400E+02    2.97566E+02    5.87151E-100
    5.62500E+02    2.88090E+02    7.66156E-100
    5.62600E+02    2.79063E+02    6.37337E-100
    5.62700E+02    2.70438E+02    3.55171E-100
    5.62800E+02    2.62187E+02    1.35974E-100
    5.62900E+02    2.54310E+02    3.58698E-100
    5.63000E+02    2.46789E+02    6.62324E-100
    5.63100E+02    2.39580E+02    8.94476E-100
    5.63200E+02    2.32677E+02    8.90915E-100
    5.63300E+02    2.26067E+02    6.61330E-99
    5.63400E+02    2.19735E+02    3.71666E-96
    5.63500E+02    2.13655E+02    1.62512E-93
    5.63600E+02    2.07816E+02    5.58144E-91
    5.63700E+02    2.02214E+02    1.51235E-88
    5.63800E+02    1.96835E+02    3.27835E-86
    5.63900E+02    1.91664E+02    5.77366E-84
    5.64000E+02    1.86695E+02    8.30201E-82
    5.64100E+02    1.81915E+02    9.89626E-80
    5.64200E+02    1.77314E+02    9.85183E-78
    5.64300E+02    1.72884E+02    8.27171E-76
    5.64400E+02    1.68618E+02    5.88794E-74
    5.64500E+02    1.64507E+02    3.59236E-72
    5.64600E+02    1.60544E+02    1.89004E-70
    5.64700E+02    1.56722E+02    8.64364E-69
    5.64800E+02    1.53034E+02    3.45320E-67
    5.64900E+02    1.49476E+02    1.21114E-65
    5.65000E+02    1.46039E+02    3.76731E-64
    5.65100E+02    1.42722E+02    1.03906E-62
    5.65200E+02    1.39515E+02    2.56640E-61
    5.65300E+02    1.36416E+02    5.68969E-60
    5.65400E+02    1.33421E+02    1.13730E-58
    5.65500E+02    1.30525E+02    2.05905E-57
    5.65600E+02    1.27728E+02    3.37739E-56
    5.65700E+02    1.25088E+02    4.72983E-55
    5.65800E+02    1.22389E+02    7.03241E-54
    5.65900E+02    1.19840E+02    8.99636E-53
    5.66000E+02    1.17384E+02    1.04928E-51
    5.66100E+02    1.15020E+02    1.11508E-50
    5.66200E+02    1.12796E+02    1.03156E-49
    5.66300E+02    1.11206E+02    5.05763E-49
    5.66400E+02    1.08351E+02    8.78238E-48
    5.66500E+02    1.06167E+02    7.80058E-47
    5.66600E+02    1.04111E+02    6.10032E-46
    5.66700E+02    1.02225E+02    4.01896E-45
    5.66800E+02    1.00228E+02    2.96203E-44
    5.66900E+02    9.83212E+01    1.99371E-43
    5.67000E+02    9.64307E+01    1.32027E-42
    5.67100E+02    9.46307E+01    7.98729E-42
    5.67200E+02    9.28888E+01    4.55927E-41
    5.67300E+02    9.11982E+01    2.47248E-40
    5.67400E+02    8.95572E+01    1.27587E-39
    5.67500E+02    8.79601E+01    6.30106E-39
    5.67600E+02    8.64067E+01    2.97875E-38
    5.67700E+02    8.48968E+01    1.34832E-37
    5.67800E+02    8.34317E+01    5.83525E-37
    5.67900E+02    8.19925E+01    2.46087E-36
    5.68000E+02    8.05967E+01    9.93802E-36
    5.68100E+02    7.92372E+01    3.87020E-35
    5.68200E+02    7.79131E+01    1.45474E-34
    5.68300E+02    7.66217E+01    5.29182E-34
    5.68400E+02    7.53631E+01    1.86311E-33
    5.68500E+02    7.41371E+01    6.34868E-33
    5.68600E+02    7.29387E+01    2.10436E-32
    5.68700E+02    7.17730E+01    6.75099E-32
    5.68800E+02    7.06328E+01    2.11135E-31
    5.68900E+02    6.95222E+01    6.41032E-31
    5.69000E+02    6.84370E+01    1.89748E-30
    5.69100E+02    6.73795E+01    5.46307E-30
    5.69200E+02    6.63445E+01    1.53804E-29
    5.69300E+02    6.53355E+01    4.21863E-29
    5.69400E+02    6.43506E+01    1.12949E-28
    5.69500E+02    6.33859E+01    2.96382E-28
    5.69600E+02    6.24455E+01    7.59008E-28
    5.69700E+02    6.15279E+01    1.90003E-27
    5.69800E+02    6.06339E+01    4.64532E-27
    5.69900E+02    5.97678E+01    1.10457E-26
    5.70000E+02    5.89513E+01    2.49908E-26
    5.70100E+02    5.84567E+01    4.09808E-26
    5.70200E+02    5.72840E+01    1.32394E-25
    5.70300E+02    5.64396E+01    3.08030E-25
    5.70400E+02    5.56410E+01    6.84545E-25
    5.70500E+02    5.48687E+01    1.48188E-24
    5.70600E+02    5.41163E+01    3.14484E-24
    5.70700E+02    5.33848E+01    6.53516E-24
    5.70800E+02    5.26862E+01    1.31419E-23
    5.70900E+02    5.20589E+01    2.46098E-23
    5.71000E+02    5.21390E+01    2.27154E-23
    5.71100E+02    5.06826E+01    9.74606E-23
    5.71200E+02    4.99349E+01    2.05845E-22
    5.71300E+02    4.92569E+01    4.05503E-22
    5.71400E+02    4.86077E+01    7.76109E-22
    5.71500E+02    4.79739E+01    1.46286E-21
    5.71600E+02    4.73575E+01    2.70952E-21
    5.71700E+02    4.67525E+01    4.96208E-21
    5.71800E+02    4.61607E+01    8.96718E-21
    5.71900E+02    4.55795E+01    1.60354E-20
    5.72000E+02    4.50111E+01    2.83085E-20
    5.72100E+02    4.44556E+01    4.93395E-20
    5.72200E+02    4.39078E+01    8.53271E-20
    5.72300E+02    4.33729E+01    1.45678E-19
    5.72400E+02    4.28485E+01    2.46114E-19
    5.72500E+02    4.23350E+01    4.11286E-19
    5.72600E+02    4.18309E+01    6.80858E-19
    5.72700E+02    4.13442E+01    1.10770E-18
    5.72800E+02    4.08846E+01    1.75410E-18
    5.72900E+02    4.04895E+01    2.60396E-18
    5.73000E+02    3.99173E+01    4.61442E-18
    5.73100E+02    3.94401E+01    7.43653E-18
    5.73200E+02    3.89831E+01    1.17451E-17
    5.73300E+02    3.85379E+01    1.83313E-17
    5.73400E+02    3.81046E+01    2.82738E-17
    5.73500E+02    3.76917E+01    4.27267E-17
    5.73600E+02    3.74492E+01    5.44542E-17
    5.73700E+02    3.68552E+01    9.86306E-17
    5.73800E+02    3.64278E+01    1.51214E-16
    5.73900E+02    3.60217E+01    2.26967E-16
    5.74000E+02    3.56267E+01    3.36910E-16
    5.74100E+02    3.52382E+01    4.96880E-16
    5.74200E+02    3.48580E+01    7.26687E-16
    5.74300E+02    3.44844E+01    1.05590E-15
    5.74400E+02    3.41218E+01    1.51736E-15
    5.74500E+02    3.37861E+01    2.12263E-15
    5.74600E+02    3.34203E+01    3.06019E-15
    5.74700E+02    3.30518E+01    4.42381E-15
    5.74800E+02    3.27022E+01    6.27511E-15
    5.74900E+02    3.23627E+01    8.81124E-15
    5.75000E+02    3.20293E+01    1.22985E-14
    5.75100E+02    3.17013E+01    1.70733E-14
    5.75200E+02    3.13784E+01    2.35798E-14
    5.75300E+02    3.10607E+01    3.23971E-14
    5.75400E+02    3.07482E+01    4.42826E-14
    5.75500E+02    3.04407E+01    6.02225E-14
    5.75600E+02    3.01384E+01    8.14779E-14
    5.75700E+02    2.98414E+01    1.09654E-13
    5.75800E+02    2.95493E+01    1.46867E-13
    5.75900E+02    2.92601E+01    1.96116E-13
    5.76000E+02    2.89764E+01    2.60443E-13
    5.76100E+02    2.86987E+01    3.43823E-13
    5.76200E+02    2.84279E+01    4.50752E-13
    5.76300E+02    2.81670E+01    5.85104E-13
    5.76400E+02    2.79262E+01    7.44413E-13
    5.76500E+02    2.78424E+01    8.09448E-13
    5.76600E+02    2.74228E+01    1.23145E-12
    5.76700E+02    2.71245E+01    1.65955E-12
    5.76800E+02    2.68639E+01    2.15361E-12
    5.76900E+02    2.66070E+01    2.78437E-12
    5.77000E+02    2.63616E+01    3.55878E-12
    5.77100E+02    2.61175E+01    4.54284E-12
    5.77200E+02    2.58790E+01    5.76636E-12
    5.77300E+02    2.56456E+01    7.28203E-12
    5.77400E+02    2.54133E+01    9.18662E-12
    5.77500E+02    2.51854E+01    1.15379E-11
    5.77600E+02    2.49609E+01    1.44416E-11
    5.77700E+02    2.47398E+01    1.80152E-11
    5.77800E+02    2.45223E+01    2.23918E-11
    5.77900E+02    2.43127E+01    2.76144E-11
    5.78000E+02    2.40955E+01    3.43146E-11
    5.78100E+02    2.38859E+01    4.23159E-11
    5.78200E+02    2.36797E+01    5.20060E-11
    5.78300E+02    2.34763E+01    6.37325E-11
    5.78400E+02    2.32758E+01    7.78819E-11
    5.78500E+02    2.30782E+01    9.49040E-11
    5.78600E+02    2.28843E+01    1.15207E-10
    5.78700E+02    2.26910E+01    1.39776E-10
    5.78800E+02    2.25010E+01    1.69028E-10
    5.78900E+02    2.23136E+01    2.03855E-10
    5.79000E+02    2.21289E+01    2.45218E-10
    5.79100E+02    2.19467E+01    2.94230E-10
    5.79200E+02    2.17667E+01    3.52227E-10
    5.79300E+02    2.15893E+01    4.20610E-10
    5.79400E+02    2.14142E+01    5.01130E-10
    5.79500E+02    2.12413E+01    5.95718E-10
    5.79600E+02    2.10706E+01    7.06545E-10
    5.79700E+02    2.09023E+01    8.36104E-10
    5.79800E+02    2.07360E+01    9.87396E-10
    5.79900E+02    2.05720E+01    1.16326E-09
    5.80000E+02    2.04119E+01    1.36532E-09
    5.80100E+02    2.02502E+01    1.60498E-09
    5.80200E+02    2.00927E+01    1.87869E-09
    5.80300E+02    1.99366E+01    2.19596E-09
    5.80400E+02    1.97833E+01    2.55992E-09
    5.80500E+02    1.96308E+01    2.98174E-09
    5.80600E+02    1.94807E+01    3.46437E-09
    5.80700E+02    1.93326E+01    4.01762E-09
    5.80800E+02    1.91863E+01    4.65066E-09
    5.80900E+02    1.90421E+01    5.37195E-09
    5.81000E+02    1.89001E+01    6.19167E-09
    5.81100E+02    1.87592E+01    7.12793E-09
    5.81200E+02    1.86205E+01    8.18867E-09
    5.81300E+02    1.84862E+01    9.36583E-09
    5.81400E+02    1.83493E+01    1.07395E-08
    5.81500E+02    1.82164E+01    1.22661E-08
    5.81600E+02    1.80856E+01    1.39810E-08
    5.81700E+02    1.79582E+01    1.58808E-08
    5.81800E+02    1.78359E+01    1.79465E-08
    5.81900E+02    1.77198E+01    2.01557E-08
    5.82000E+02    1.76253E+01    2.21533E-08
    5.82100E+02    1.76455E+01    2.17098E-08
    5.82200E+02    1.74916E+01    2.53220E-08
    5.82300E+02    1.73059E+01    3.04895E-08
    5.82400E+02    1.71138E+01    3.69480E-08
    5.82500E+02    1.69744E+01    4.24742E-08
    5.82600E+02    1.68479E+01    4.82003E-08
    5.82700E+02    1.67265E+01    5.44213E-08
    5.82800E+02    1.66083E+01    6.12515E-08
    5.82900E+02    1.64928E+01    6.87461E-08
    5.83000E+02    1.63797E+01    7.69807E-08
    5.83100E+02    1.62685E+01    8.60388E-08
    5.83200E+02    1.61611E+01    9.57916E-08
    5.83300E+02    1.60603E+01    1.05948E-07
    5.83400E+02    1.59861E+01    1.14107E-07
    5.83500E+02    1.59574E+01    1.17429E-07
    5.83600E+02    1.57493E+01    1.44595E-07
    5.83700E+02    1.56285E+01    1.63172E-07
    5.83800E+02    1.55200E+01    1.81860E-07
    5.83900E+02    1.54234E+01    2.00300E-07
    5.84000E+02    1.53129E+01    2.23708E-07
    5.84100E+02    1.52111E+01    2.47683E-07
    5.84200E+02    1.51113E+01    2.73681E-07
    5.84300E+02    1.50130E+01    3.01953E-07
    5.84400E+02    1.49159E+01    3.32730E-07
    5.84500E+02    1.48201E+01    3.66208E-07
    5.84600E+02    1.47262E+01    4.02253E-07
    5.84700E+02    1.46316E+01    4.42165E-07
    5.84800E+02    1.45384E+01    4.85362E-07
    5.84900E+02    1.44465E+01    5.32075E-07
    5.85000E+02    1.43557E+01    5.82659E-07
    5.85100E+02    1.42659E+01    6.37357E-07
    5.85200E+02    1.41770E+01    6.96632E-07
    5.85300E+02    1.40894E+01    7.60397E-07
    5.85400E+02    1.40023E+01    8.29622E-07
    5.85500E+02    1.39161E+01    9.04300E-07
    5.85600E+02    1.38311E+01    9.84571E-07
    5.85700E+02    1.37472E+01    1.07070E-06
    5.85800E+02    1.36636E+01    1.16402E-06
    5.85900E+02    1.35807E+01    1.26461E-06
    5.86000E+02    1.34992E+01    1.37206E-06
    5.86100E+02    1.34184E+01    1.48757E-06
    5.86200E+02    1.33381E+01    1.61190E-06
    5.86300E+02    1.32589E+01    1.74479E-06
    5.86400E+02    1.31806E+01    1.88682E-06
    5.86500E+02    1.31031E+01    2.03897E-06
    5.86600E+02    1.30262E+01    2.20178E-06
    5.86700E+02    1.29503E+01    2.37561E-06
    5.86800E+02    1.28760E+01    2.55866E-06
    5.86900E+02    1.28002E+01    2.76014E-06
    5.87000E+02    1.27270E+01    2.96994E-06
    5.87100E+02    1.26531E+01    3.19756E-06
    5.87200E+02    1.25806E+01    3.43798E-06
    5.87300E+02    1.25088E+01    3.69399E-06
    5.87400E+02    1.24379E+01    3.96551E-06
    5.87500E+02    1.23675E+01    4.25457E-06
    5.87600E+02    1.22979E+01    4.56112E-06
    5.87700E+02    1.22292E+01    4.88565E-06
    5.87800E+02    1.21611E+01    5.23018E-06
    5.87900E+02    1.20933E+01    5.59705E-06
    5.88000E+02    1.20262E+01    5.98511E-06
    5.88100E+02    1.19602E+01    6.39360E-06
    5.88200E+02    1.18944E+01    6.82859E-06
    5.88300E+02    1.18295E+01    7.28641E-06
    5.88400E+02    1.17656E+01    7.76725E-06
    5.88500E+02    1.17015E+01    8.28159E-06
    5.88600E+02    1.16382E+01    8.82283E-06
    5.88700E+02    1.15757E+01    9.39116E-06
    5.88800E+02    1.15140E+01    9.98951E-06
    5.88900E+02    1.14532E+01    1.06150E-05
    5.89000E+02    1.13940E+01    1.12634E-05
    5.89100E+02    1.13513E+01    1.17541E-05
    5.89200E+02    1.12748E+01    1.26889E-05
    5.89300E+02    1.12135E+01    1.34902E-05
    5.89400E+02    1.11546E+01    1.43096E-05
    5.89500E+02    1.10964E+01    1.51671E-05
    5.89600E+02    1.10388E+01    1.60653E-05
    5.89700E+02    1.09822E+01    1.70022E-05
    5.89800E+02    1.09259E+01    1.79860E-05
    5.89900E+02    1.08708E+01    1.90046E-05
    5.90000E+02    1.08165E+01    2.00658E-05
    5.90100E+02    1.07639E+01    2.11491E-05
    5.90200E+02    1.07161E+01    2.21858E-05
    5.90300E+02    1.06949E+01    2.26612E-05
    5.90400E+02    1.06257E+01    2.42830E-05
    5.90500E+02    1.05542E+01    2.60828E-05
    5.90600E+02    1.04981E+01    2.75881E-05
    5.90700E+02    1.04458E+01    2.90696E-05
    5.90800E+02    1.03966E+01    3.05376E-05
    5.90900E+02    1.03534E+01    3.18837E-05
    5.91000E+02    1.03687E+01    3.13989E-05
    5.91100E+02    1.02630E+01    3.49009E-05
    5.91200E+02    1.02374E+01    3.58051E-05
    5.91300E+02    1.01837E+01    3.77816E-05
    5.91400E+02    1.01029E+01    4.09620E-05
    5.91500E+02    1.00472E+01    4.33084E-05
    5.91600E+02    9.99652E+00    4.55583E-05
    5.91700E+02    9.94748E+00    4.78479E-05
    5.91800E+02    9.89973E+00    5.01881E-05
    5.91900E+02    9.85297E+00    5.25906E-05
    5.92000E+02    9.80688E+00    5.50713E-05
    5.92100E+02    9.76177E+00    5.76124E-05
    5.92200E+02    9.71772E+00    6.02068E-05
    5.92300E+02    9.67575E+00    6.27876E-05
    5.92400E+02    9.63846E+00    6.51730E-05
    5.92500E+02    9.61187E+00    6.69295E-05
    5.92600E+02    9.67534E+00    6.28133E-05
    5.92700E+02    9.56076E+00    7.04391E-05
    5.92800E+02    9.47059E+00    7.70859E-05
    5.92900E+02    9.41603E+00    8.14082E-05
    5.93000E+02    9.36859E+00    8.53634E-05
    5.93100E+02    9.32408E+00    8.92493E-05
